,Cycle_Index,Discharge Time (s),Decrement 3.6-3.4V (s),Max. Voltage Dischar. (V),Min. Voltage Charg. (V),Time at 4.15V (s),Time constant current (s),Charging time (s),Total time (s),RUL
1,1.0,2590.02,1239.007,3.66,3.225,5376.0,6678.01,10821.98,14689.92,1133
2,2.0,7342.94,1284.4960000000028,4.237,3.242,5424.991000000002,6678.02,10543.36,19101.6,1132
3,3.0,7309.44,1201.6746666666659,4.239,3.248,5411.008000000002,6656.99,10471.59,18996.25,1131
4,4.0,7298.15,1168.9930000000022,4.241,3.251,5404.000000000007,6650.02,10320.89,18834.340000000004,1130
6,6.0,64732.97,1176.0,4.286,3.253,5396.993000000002,107396.87,107396.87,107464.73999999999,1128
7,7.0,3329.98,1026.9617142857169,3.698,3.485,5074.62115384615,5940.0,5940.0,9546.01000000001,1127
8,8.0,6029.98,1055.4864419642836,4.044,3.478,5081.530615384632,5940.0,5940.0,12240.73999999999,1126
9,9.0,6029.98,1057.787766233785,4.046,3.479,5065.710000000021,5940.0,5940.0,12225.410000000003,1125
10,10.0,6029.98,1070.0017777777684,4.044,3.483,5052.8550000000105,5940.0,5940.0,12192.380000000005,1124
11,11.0,423018.97,3960.0,4.269,3.123,220326.36700000006,429677.93,429677.93,462101.20999999996,1123
12,12.0,8414.98,888.0,4.032,3.903,1940.3519999999553,2913.34,6140.32,8426.650000000023,1122
13,13.0,2263.2,888.0,4.036,3.37,5202.33600000001,6168.32,9423.33,11693.380000000005,1121
14,14.0,2260.8,885.5989999999292,4.036,3.37,5202.366999999853,6175.36,9395.36,11669.570000000065,1120
15,15.0,2258.4,880.8009999999776,4.037,3.369,5195.3279999999795,6168.32,9388.32,11655.54999999993,1119
16,16.0,2256.0,880.7999999999302,4.038,3.368,5195.234000000055,6161.25,9381.25,11648.930000000051,1118
17,17.0,2253.6,878.402999999933,4.039,3.368,5188.320999999996,6154.34,9353.34,11618.329999999958,1117
18,18.0,2251.2,876.0,4.039,3.368,5174.304999999935,6147.3,9332.29,11593.729999999981,1116
19,19.0,2246.4,871.2029999999795,4.039,3.368,5167.327999999863,6140.32,9360.32,11614.5,1115
20,20.0,2244.0,866.3979999999283,4.039,3.369,5160.352000000072,6126.37,9304.35,11559.94000000006,1114
21,21.0,2241.6,866.3990000000922,4.039,3.369,5153.280999999959,6119.27,9332.26,11584.919999999925,1113
22,22.0,2239.2,864.0,4.039,3.37,5139.3279999999795,6112.32,9297.34,11543.840000000084,1112
23,23.0,2234.41,856.7970000000205,4.039,3.371,5132.320999999996,6105.31,9292.23,11531.80999999994,1111
24,24.0,2234.39,859.2029999999795,4.04,3.371,5125.25,6098.23,9283.23,11525.98999999999,1110
25,25.0,2234.73,856.7970000000205,4.04,3.372,5125.343999999925,6091.33,9283.33,11527.26000000001,1109
26,26.0,2232.0,854.405999999959,4.04,3.372,5118.3120000000345,6084.3,9262.31,11504.19000000006,1108
27,27.0,2229.61,852.0,4.04,3.372,5111.3279999999795,6077.34,9276.33,11515.140000000014,1107
28,28.0,2227.19,849.609999999986,4.04,3.372,5100.836500000092,6070.34,9234.34,11471.73999999999,1106
29,29.0,2224.8,844.8120000000345,4.04,3.373,5097.343999999925,6063.33,9255.33,11491.329999999958,1105
30,30.0,2222.36,842.4070000000065,4.04,3.374,5090.3279999999795,6056.31,9255.33,11484.819999999949,1104
31,31.0,2220.0,844.7970000000205,4.04,3.374,5083.3279999999795,6049.34,9234.33,11460.970000000088,1103
32,32.0,2220.0,840.0,4.04,3.374,5076.3129999999655,6049.34,9206.33,11434.779999999912,1102
33,33.0,2217.59,840.0,4.04,3.375,5076.3120000000345,6042.33,9248.34,11477.570000000065,1101
34,34.0,2215.2,835.2029999999795,4.04,3.376,5069.3429999999935,6035.33,9220.33,11442.619999999995,1100
35,35.0,2215.22,830.405999999959,4.021,3.688,5026.030999999959,5999.03,9275.03,54411.41000000003,1099
36,36.0,2222.38,830.405999999959,4.038,3.676,5041.375,6014.38,9269.38,11808.649999999907,1098
37,37.0,2222.41,835.219000000041,4.04,3.379,5076.311999999918,6049.34,9241.34,11474.660000000033,1097
38,38.0,2220.0,832.7810000000754,4.04,3.376,5076.313000000082,6049.34,9248.31,11478.869999999995,1096
39,39.0,2215.19,828.0,4.04,3.377,5069.342999999877,6035.34,9227.34,11448.0,1095
40,40.0,2212.78,828.0,4.04,3.378,5055.343999999808,6028.34,9227.34,11448.030000000028,1094
41,41.0,2210.41,823.2190000002738,4.04,3.378,5048.311999999685,6014.34,9213.34,11436.629999999888,1093
42,42.0,2208.0,823.188000000082,4.04,3.379,5041.186999999918,6007.19,9192.19,11412.280000000028,1092
43,43.0,2208.0,823.1880000003148,4.04,3.379,5034.343999999808,6007.31,9192.31,11410.690000000177,1091
44,44.0,2205.59,820.813000000082,4.04,3.38,5027.375,6000.38,9171.38,11385.649999999907,1090
45,45.0,2203.19,818.375,4.04,3.381,5020.344000000041,5993.38,9157.38,11367.879999999888,1089
46,46.0,2200.81,816.0,4.039,3.381,5013.375,5986.38,9171.38,11382.530000000028,1088
47,47.0,2198.41,813.594000000041,4.039,3.382,5006.313000000082,5979.28,9122.31,11329.530000000028,1087
48,48.0,2196.0,813.625,4.039,3.383,4999.375,5972.34,9164.34,11370.719999999972,1086
49,49.0,2193.59,811.2189999998081,4.039,3.385,4992.342999999877,5965.38,9136.34,11341.030000000028,1085
50,50.0,2193.59,808.813000000082,4.039,3.383,4992.344000000041,5958.38,9150.38,11356.100000000093,1084
51,51.0,2191.19,811.219000000041,4.039,3.384,4985.405999999959,5958.41,9136.38,11336.209999999963,1083
52,52.0,2191.91,806.4060000001919,4.039,3.384,4978.311999999685,5951.31,9129.34,11334.25,1082
53,53.0,2188.81,806.4070000001229,4.039,3.385,4978.342999999877,5944.34,9143.34,11344.75,1081
54,54.0,2186.38,804.0,4.039,3.386,4971.407000000123,5937.41,9101.41,11299.320000000065,1080
55,55.0,2186.44,804.0,4.038,3.386,4964.375,5930.38,9122.38,11319.429999999935,1079
56,56.0,2184.0,801.563000000082,4.038,3.387,4957.313000000082,5930.31,9157.31,11353.939999999944,1078
57,57.0,2184.0,801.625,4.038,3.387,4957.375,5923.38,9115.38,11310.130000000121,1077
58,58.0,2181.56,799.25,4.038,3.387,4950.311999999918,5923.31,9115.31,11303.5,1076
59,59.0,2179.19,789.625,4.018,3.709,4914.0,5887.0,9170.0,54269.429999999935,1075
60,60.0,205853.38,3080.0100000000093,4.271,3.17,71099.99900000007,82440.0,82440.0,220127.24,1074
61,61.0,2172.0,794.3999999999069,3.998,3.398,5207.00699999975,6164.61,9548.61,11770.879999999888,1073
62,62.0,2172.0,796.8000000000466,4.0,3.393,4976.479999999981,5912.48,9188.48,11406.430000000168,1072
63,63.0,2172.0,795.0,4.001,3.391,4976.319999999832,5912.32,9188.32,11393.540000000037,1071
64,64.0,2172.0,795.0,4.001,3.392,4969.183000000194,5912.38,9152.38,11369.629999999888,1070
65,65.0,2172.0,795.0,4.001,3.393,4961.952000000048,5912.35,9152.35,11353.25,1069
66,66.0,2172.0,795.0,4.001,3.393,4952.354999999981,5912.35,9152.35,11350.939999999944,1068
67,67.0,2160.0,790.8000000000466,4.001,3.394,4947.519999999786,5912.32,9116.32,11318.780000000028,1067
68,68.0,2160.0,790.8000000000466,4.001,3.395,4940.352000000188,5876.35,9152.35,11342.469999999972,1066
69,69.0,2160.0,788.8000000000466,4.001,3.395,4933.08899999992,5876.29,9116.29,11315.680000000168,1065
70,70.0,2160.03,788.8000000000466,4.001,3.395,4928.320000000065,5876.32,9116.32,11321.789999999804,1064
71,71.0,2160.0,788.8000000000466,4.002,3.396,4922.319999999832,5876.32,9080.32,11287.270000000019,1063
72,72.0,2160.0,788.8000000000466,4.002,3.397,4916.320000000065,5876.32,9116.32,11305.530000000028,1062
73,73.0,2160.0,784.8000000000466,4.002,3.396,4911.528000000166,5876.33,9080.33,11289.120000000112,1061
74,74.0,2148.0,784.8000000000466,4.002,3.397,4904.359000000171,5840.36,9080.36,11273.5,1060
75,75.0,2148.0,780.8000000000466,4.002,3.398,4904.234000000171,5840.23,9080.23,11253.889999999898,1059
76,76.0,2148.0,780.0,4.002,3.399,4892.297000000253,5840.3,9044.3,11234.410000000149,1058
77,77.0,2148.0,780.0154999999795,4.001,3.4,4889.9280000003055,5840.33,9080.33,11262.839999999851,1057
78,78.0,2148.0,778.0,4.002,3.4,4882.760000000009,5840.36,9044.36,11220.580000000075,1056
79,79.0,2148.0,774.0,4.002,3.4,4880.327999999747,5840.33,9044.33,11232.580000000075,1055
80,80.0,2148.0,774.0,4.002,3.4,4875.558999999892,5840.36,9116.36,11282.809999999823,1054
81,81.0,2136.0,773.0,4.001,3.402,4868.4529999999795,5804.45,9044.45,11236.520000000019,1053
82,82.0,2136.0,771.0,4.002,3.403,4868.3910000000615,5804.39,9044.39,11231.060000000056,1052
83,83.0,2136.0,769.6000000000931,4.002,3.402,4861.1440000000875,5804.34,9044.34,11239.689999999944,1051
84,84.0,2150.41,763.2189999998081,4.013,3.731,4816.0,5789.0,9128.0,54194.090000000084,1050
85,85.0,2148.0,760.8000000000466,3.999,3.722,4820.313000000082,5768.31,9116.31,11599.75,1049
86,86.0,2148.0,768.0,4.001,3.406,4862.311999999918,5804.31,9116.31,11279.219999999972,1048
87,87.0,2136.0,768.0,4.001,3.404,4862.311999999918,5804.31,9080.31,11267.090000000084,1047
88,88.0,2136.0,764.0,4.001,3.405,4856.313000000082,5804.31,9044.31,11223.569999999832,1046
89,89.0,2136.0,762.0155000002123,4.002,3.405,4850.344000000041,5804.34,9044.34,11235.370000000112,1045
90,90.0,2136.0,762.0,4.001,3.406,4844.34300000011,5804.34,9044.34,11215.969999999972,1044
91,91.0,2136.0,762.3999999999069,4.001,3.406,4839.388000000035,5804.19,9044.19,11224.939999999944,1043
92,92.0,2136.0,758.3999999999069,4.001,3.406,4832.34300000011,5768.34,9044.34,11201.430000000168,1042
93,93.0,2124.0,760.8000000000466,4.0,3.407,4825.112999999896,5768.31,9008.31,11189.909999999916,1041
94,94.0,2124.0,756.8000000000466,4.0,3.407,4820.343999999808,5768.34,9008.34,11191.75,1040
95,95.0,2124.0,756.0,4.0,3.409,4814.297000000253,5768.31,9008.31,11170.280000000028,1039
96,96.0,2124.0,755.1999999999534,4.001,3.409,4808.34300000011,5768.34,9008.34,11174.469999999972,1038
97,97.0,2124.0,755.1999999999534,4.001,3.409,4802.219000000041,5768.22,9008.22,11177.310000000056,1037
98,98.0,2124.0,751.1999999999534,4.0,3.409,4796.343999999808,5768.34,9015.5,11157.25,1036
99,99.0,2124.0,753.0,4.0,3.411,4796.343999999808,5732.34,8972.34,11140.069999999832,1035
100,100.0,2123.69,749.6000000000931,3.999,3.411,4791.331000000006,5734.53,8974.53,11145.840000000084,1034
101,101.0,2112.0,750.0,4.0,3.411,4781.975000000093,5732.38,9008.38,11149.909999999916,1033
102,102.0,2120.91,750.0,3.999,3.412,4778.375,5732.38,9008.38,11146.530000000028,1032
103,103.0,2112.0,748.0,3.999,3.412,4772.34300000011,5732.34,9008.38,11147.939999999944,1031
104,104.0,2117.12,746.3999999999069,3.999,3.413,4767.574999999953,5732.38,8900.38,11069.620000000112,1030
105,105.0,2112.0,746.3999999999069,3.999,3.413,4766.313000000082,5732.31,8972.31,11127.439999999944,1029
106,106.0,2112.0,746.3999999999069,3.999,3.413,4760.188000000082,5732.19,8972.19,11117.680000000168,1028
107,107.0,2112.0,742.0,3.998,3.414,4701.612999999896,5680.81,8992.81,11164.819999999832,1027
108,108.0,2123.0,736.811999999918,4.009,3.744,4732.0,5712.0,9079.06,54117.810000000056,1026
109,109.0,202900.55,2820.0,4.271,3.229,69480.00200000033,80789.99,80789.99,217165.68999999994,1025
110,110.0,2124.0,741.0,3.99,3.407,5048.320000000298,6020.32,9476.32,11632.350000000093,1024
111,111.0,2124.0,745.2000000001863,3.993,3.416,4784.353000000119,5732.35,9080.35,11242.850000000093,1023
112,112.0,2124.0,746.0019999998622,3.993,3.414,4790.350999999791,5732.35,9044.35,11205.529999999795,1022
113,113.0,2112.0,744.7999999998137,3.994,3.415,4784.320000000298,5732.32,9044.32,11189.89000000013,1021
114,114.0,2112.0,744.7999999998137,3.994,3.416,4781.916000000201,5732.32,9008.32,11162.75,1020
115,115.0,2112.0,744.7999999998137,3.994,3.417,4774.720999999903,5732.32,9044.32,11201.540000000037,1019
116,116.0,2112.0,742.7999999998137,3.994,3.416,4767.550999999978,5732.35,9008.35,11170.529999999795,1018
117,117.0,2112.0,742.0,3.994,3.418,4760.320000000298,5696.32,9008.32,11168.950000000186,1017
118,118.0,2112.0,742.0,3.994,3.418,4753.120000000112,5696.32,9008.32,11172.069999999832,1016
119,119.0,2110.17,738.0,3.994,3.419,4745.9199999999255,5696.32,9008.32,11157.310000000056,1015
120,120.0,2100.0,738.0,3.994,3.419,4738.719999999739,5696.32,9008.32,11156.169999999925,1014
121,121.0,2100.0,738.0,3.994,3.42,4731.482000000309,5696.28,8972.29,11130.040000000037,1013
122,122.0,2100.0,734.0,3.994,3.42,4730.311999999918,5660.31,9008.31,11132.189999999944,1012
123,123.0,2100.0,732.7999999998137,3.995,3.421,4724.280999999959,5660.28,9008.28,11139.330000000075,1011
124,124.0,2100.0,733.2000000001863,3.995,3.421,4717.143999999389,5660.34,9008.34,11129.790000000037,1010
125,125.0,2088.0,731.2000000001863,3.994,3.422,4706.39000000013,5660.39,8972.39,11091.939999999944,1009
126,126.0,2088.0,729.6000000000931,3.994,3.423,4700.35999999987,5660.36,8961.89,11069.53000000026,1008
127,127.0,2088.0,725.6000000000931,3.994,3.423,4694.359000000171,5624.36,8972.36,11097.989999999758,1007
128,128.0,2088.0,725.6000000000931,3.995,3.424,4688.343000000343,5624.34,8972.34,11099.510000000242,1006
129,129.0,2088.0,726.0,3.994,3.424,4682.344000000041,5624.34,8972.34,11085.459999999963,1005
130,130.0,2088.0,726.0,3.995,3.424,4676.358999999706,5624.36,8972.36,11088.179999999702,1004
131,131.0,2088.0,726.0,3.995,3.426,4673.943999999668,5624.34,8972.34,11111.880000000354,1003
132,132.0,2076.0,720.0,3.995,3.426,4664.328999999911,5624.33,8936.33,11059.25,1002
133,133.0,2090.38,715.2189999995753,4.006,3.763,4613.0,5586.03,9023.03,54026.689999999944,1001
134,134.0,2088.0,715.2000000001863,3.991,3.755,4616.344000000507,5588.34,9044.34,11461.149999999907,1000
135,135.0,2088.0,722.3999999999069,3.994,3.429,4666.743999999482,5624.34,8972.34,11092.910000000149,999
136,136.0,2075.97,722.3999999999069,3.993,3.428,4670.343000000343,5624.34,8936.34,11063.619999999646,998
137,137.0,2076.0,719.0,3.994,3.427,4659.575000000186,5624.38,8936.38,11055.689999999944,997
138,138.0,2076.0,718.7999999998137,3.993,3.428,4652.311999999918,5588.31,8972.31,11068.5,996
139,139.0,2076.0,719.2000000001863,3.993,3.428,4645.080999999307,5588.28,8936.28,11036.25,995
140,140.0,2076.0,715.2000000001863,3.993,3.43,4637.913000000175,5588.31,8900.31,10998.970000000205,994
141,141.0,2076.0,715.2000000001863,3.993,3.43,4630.7440000004135,5588.34,8900.34,11020.470000000205,993
142,142.0,2075.38,717.0,3.993,3.429,4628.311999999918,5588.31,8936.31,11026.369999999646,992
143,143.0,2064.0,713.6000000000931,3.993,3.431,4622.311999999918,5552.31,8900.31,11013.910000000149,991
144,144.0,2064.0,712.0,3.992,3.431,4616.313000000082,5552.31,8900.31,11003.939999999944,990
145,145.0,2064.0,710.3999999999069,3.992,3.432,4604.218999999575,5552.22,8864.22,10963.620000000112,989
146,146.0,2064.0,710.3999999999069,3.992,3.433,4598.344000000507,5552.34,8900.34,11000.75,988
147,147.0,2064.0,706.3999999999069,3.992,3.433,4592.343000000343,5552.34,8900.34,11002.21999999974,987
148,148.0,2052.0,706.3999999999069,3.992,3.435,4587.48099999968,5552.28,8864.28,10974.970000000205,986
149,149.0,2052.0,706.3999999999069,3.992,3.434,4586.343000000343,5516.34,8900.34,11001.439999999944,985
150,150.0,2052.0,704.9920000000857,3.992,3.433,4580.375,5516.38,8900.38,10988.120000000112,984
151,151.0,2052.0,704.7999999998137,3.992,3.435,4574.218000000343,5516.22,8900.22,10980.060000000056,983
152,152.0,2052.0,704.7999999998137,3.992,3.435,4568.344000000507,5516.34,8864.34,10956.0,982
153,153.0,2052.0,700.7999999998137,3.992,3.437,4565.912000000011,5516.31,8864.31,10949.319999999832,981
154,154.0,2052.0,703.2000000001863,3.991,3.436,4562.375,5516.38,8864.38,10968.680000000168,980
155,155.0,2052.0,699.2000000001863,3.991,3.438,4556.311999999918,5516.31,8900.31,10972.129999999888,979
156,156.0,2040.0,699.6000000000931,3.991,3.437,4550.375,5480.38,8864.38,10945.439999999944,978
157,157.0,2054.44,693.561999999918,4.002,3.772,4494.0,5467.0,8946.0,53918.93000000017,977
158,158.0,2064.0,694.3999999999069,3.984,3.777,4450.7520000007935,5444.35,8972.35,11074.020000000019,976
159,159.0,2064.0,701.6000000000931,3.986,3.437,4592.353000000119,5516.35,8936.35,11038.75,975
160,160.0,2064.0,703.2000000001863,3.986,3.435,4592.321000000462,5552.32,8936.32,11045.310000000056,974
161,161.0,2052.0,699.2000000001863,3.986,3.436,4587.521000000648,5516.32,8936.32,11033.759999999776,973
162,162.0,2060.29,699.2000000001863,3.987,3.436,4580.350999999791,5516.35,8936.35,11012.520000000019,972
163,163.0,2052.0,699.2000000001863,3.987,3.436,4573.1509999991395,5516.35,8900.35,10993.14000000013,971
164,164.0,2052.0,699.2000000001863,3.987,3.437,4565.95200000098,5516.35,8900.35,10981.770000000019,970
165,165.0,2052.0,699.2000000001863,3.986,3.437,4558.618999999482,5516.22,8900.22,10993.819999999832,969
166,166.0,2040.0,699.2000000001863,3.987,3.438,4550.319999999832,5480.32,8900.32,10990.049999999814,968
167,167.0,2040.0,697.2000000001863,3.986,3.438,4544.319999999832,5480.32,8900.32,10992.930000000168,967
168,168.0,2040.0,695.2000000001863,3.987,3.439,4537.151999999769,5480.35,8936.35,11001.689999999944,966
169,169.0,2040.0,695.2000000001863,3.987,3.439,4529.950999999419,5480.35,8900.35,10981.240000000224,965
170,170.0,2040.0,695.2000000001863,3.988,3.441,4522.712999999989,5480.31,8900.31,10968.520000000019,964
171,171.0,2040.0,695.2000000001863,3.988,3.441,4522.625,5446.62,8902.62,10972.879999999888,963
172,172.0,2028.0,691.2000000001863,3.988,3.441,4508.313000000082,5444.31,8900.31,10986.930000000168,962
173,173.0,2028.0,691.2000000001863,3.988,3.443,4508.327999999281,5444.33,8900.33,10983.909999999683,961
174,174.0,2028.0,689.6000000000931,3.988,3.443,4496.328000000212,5444.33,8900.33,10966.75,960
175,175.0,2028.0,687.6000000000931,3.988,3.443,4490.25,5444.25,8864.25,10950.360000000335,959
176,176.0,2028.0,688.0,3.988,3.443,4484.219000000041,5408.22,8900.22,10954.409999999683,958
177,177.0,2028.0,684.0,3.988,3.444,4478.344000000507,5408.34,8864.34,10923.959999999963,957
178,178.0,2028.0,684.0,3.988,3.445,4472.436999999918,5408.44,8864.44,10935.14000000013,956
179,179.0,2016.0,684.0,3.988,3.445,4465.283999999985,5408.48,8828.48,10905.319999999832,955
180,180.0,2016.0,680.0103333336301,3.988,3.446,4460.328000000212,5408.33,8828.33,10903.670000000391,954
181,181.0,2028.0,679.2189999995753,3.999,3.779,4403.0,5376.0,8946.03,53887.75,953
182,182.0,2016.0,679.2000000001863,3.985,3.772,4400.311999999918,5372.31,8936.31,11291.659999999683,952
183,183.0,2028.0,682.3999999999069,3.988,3.45,4460.375,5408.38,8864.38,10925.28000000026,951
184,184.0,2016.0,680.3999999999069,3.987,3.447,4465.049999999814,5408.25,8864.25,10930.779999999795,950
185,185.0,2016.0,678.3999999999069,3.987,3.447,4454.313000000082,5408.31,8828.31,10894.25,949
186,186.0,2016.0,676.7999999998137,3.987,3.448,4448.344000000507,5372.34,8828.34,10868.620000000112,948
187,187.0,2016.0,676.7999999998137,3.987,3.448,4442.343999999575,5372.34,8828.34,10865.850000000093,947
188,188.0,2016.0,675.2000000001863,3.987,3.448,4436.344000000507,5372.34,8828.34,10874.839999999851,946
189,189.0,2004.0,673.2000000001863,3.987,3.449,4429.080999999307,5372.28,8792.28,10856.060000000056,945
190,190.0,2004.0,673.6000000000931,3.986,3.45,4421.8809999995865,5372.28,8828.28,10870.21999999974,944
191,191.0,2012.78,673.6000000000931,3.987,3.45,4418.343999999575,5372.34,8843.47,10871.060000000056,943
192,192.0,2004.0,669.6000000000931,3.986,3.451,4412.281999999657,5372.28,8828.28,10855.220000000205,942
193,193.0,2004.0,672.0,3.986,3.451,4406.311999999918,5336.31,8792.31,10834.100000000093,941
194,194.0,2004.0,668.0,3.986,3.452,4400.25,5336.25,8843.28,10870.429999999702,940
195,195.0,2004.0,668.3999999999069,3.986,3.453,4393.049999999814,5336.25,8828.25,10867.470000000205,939
196,196.0,1992.0,666.3999999999069,3.986,3.453,4388.218999999575,5336.22,8792.22,10843.529999999795,938
197,197.0,1992.0,664.0,3.985,3.453,4382.343999999575,5336.34,8828.34,10858.720000000205,937
198,198.0,1992.0,664.0,3.986,3.454,4378.618999999482,5336.22,8828.22,10845.779999999795,936
199,199.0,1992.0,664.7999999998137,3.986,3.454,4376.311999999918,5300.31,8792.31,10819.820000000298,935
200,200.0,1992.0,663.2000000001863,3.985,3.454,4371.544000000693,5300.34,8792.34,10813.679999999702,934
201,201.0,1992.0,661.2000000001863,3.985,3.456,4364.311999999918,5300.31,8756.31,10798.689999999944,933
202,202.0,1992.0,661.6000000000931,3.984,3.455,4364.343999999575,5300.34,8756.34,10776.600000000093,932
203,203.0,1992.0,657.6000000000931,3.985,3.456,4358.25,5300.25,8756.25,10784.560000000056,931
204,204.0,1980.0,656.0,3.984,3.456,4352.313000000082,5300.31,8792.31,10816.370000000112,930
