,Cycle_Index,Discharge Time (s),Decrement 3.6-3.4V (s),Max. Voltage Dischar. (V),Min. Voltage Charg. (V),Time at 4.15V (s),Time constant current (s),Charging time (s),Total time (s),RUL
1,1.0,2609.47,1371.9999999999998,3.65,3.228,5348.0,6678.02,11078.56,14963.45,1102
2,2.0,7380.38,1435.0080000000053,4.228,3.242,5418.0170000000035,6684.99,10792.29,19388.289999999997,1101
3,3.0,7343.91,1341.6640000000043,4.231,3.253,5396.991999999998,6664.0,10664.9,19224.1,1100
4,4.0,7325.25,1294.975999999995,4.232,3.254,5383.008000000009,6650.02,10587.33,19127.87000000001,1099
6,6.0,64950.02,1291.5040000000008,4.282,3.261,5383.014999999999,107847.48,107847.48,107915.35999999999,1097
7,7.0,3240.0,1017.2489808429091,3.698,3.485,5142.8708571429015,6077.57,6077.57,9584.860000000015,1096
8,8.0,6044.13,1041.6580555555702,4.047,3.476,5149.273928571405,6075.29,6075.29,12300.089999999997,1095
9,9.0,6049.02,1044.9890000000014,4.05,3.477,5136.415714285715,6058.21,6058.21,12287.940000000002,1094
10,10.0,6029.44,1061.3824137930933,4.047,3.481,5123.058461538458,6029.98,6029.98,12253.470000000001,1093
11,11.0,425621.48,173423.625,4.27,3.119,221423.47699999996,432817.94,432817.94,465309.31999999995,1092
12,12.0,2262.69,902.4000000000233,4.039,3.9,1982.3680000000168,2962.37,6336.54,8614.340000000084,1091
13,13.0,2262.21,904.8010000000941,4.043,3.365,5258.33600000001,6238.34,9623.01,11890.429999999935,1090
14,14.0,2260.06,902.4000000000233,4.044,3.361,5265.344000000157,6238.34,9600.77,11865.890000000014,1089
15,15.0,2259.04,902.3980000000447,4.045,3.361,5258.337999999989,6238.34,9623.81,11887.900000000023,1088
16,16.0,2257.44,902.3980000000447,4.046,3.36,5251.359999999986,6231.36,9612.67,11875.170000000042,1087
17,17.0,2255.04,897.6019999999553,4.047,3.36,5247.824000000022,6224.32,9591.33,11855.79999999993,1086
18,18.0,2252.03,892.8049999999348,4.048,3.361,5244.351999999955,6217.38,9561.34,11818.599999999977,1085
19,19.0,2249.51,890.3979999999283,4.048,3.361,5230.335999999894,6210.34,9563.33,11819.900000000023,1084
20,20.0,2247.68,885.6009999999078,4.049,3.361,5223.358999999822,6203.36,9629.34,11882.080000000075,1083
21,21.0,2244.2,880.7969999999041,4.049,3.362,5216.352000000072,6189.38,9553.92,11803.139999999898,1082
22,22.0,2242.47,878.3989999999758,4.049,3.363,5202.366999999853,6182.37,9535.36,11783.71000000008,1081
23,23.0,2240.48,876.0,4.049,3.364,5202.359000000055,6175.36,9518.5,11764.109999999986,1080
24,24.0,2238.56,876.0,4.049,3.363,5195.3279999999795,6175.33,9527.52,11771.119999999995,1079
25,25.0,2236.36,871.2029999999795,4.049,3.364,5188.311999999918,6168.31,9517.69,11759.140000000014,1078
26,26.0,2234.02,868.8120000000345,4.049,3.364,5181.343999999925,6161.34,9502.47,11741.469999999972,1077
27,27.0,2232.2,866.4070000000065,4.049,3.366,5174.359999999986,6154.36,9524.61,11761.770000000019,1076
28,28.0,2229.61,861.594000000041,4.049,3.367,5167.3279999999795,6147.33,9492.58,11727.51000000001,1075
29,29.0,2227.84,861.609000000055,4.049,3.367,5160.344000000041,6140.34,9491.16,11724.05999999994,1074
30,30.0,2225.7,856.795999999973,4.049,3.367,5153.344000000041,6140.31,9434.97,11665.73999999999,1073
31,31.0,2224.0,856.813000000082,4.048,3.368,5153.375,6133.38,9443.2,11672.119999999995,1072
32,32.0,2221.75,854.405999999959,4.048,3.369,5146.375,6126.38,9391.05,11617.69000000006,1071
33,33.0,2220.16,852.0,4.048,3.369,5139.3589999999385,6119.36,9428.7,11653.949999999953,1070
34,34.0,2217.69,849.625,4.048,3.37,5132.3129999999655,6119.33,9416.52,11639.180000000051,1069
35,35.0,2217.97,844.8120000000345,4.031,3.588,5103.25,6076.0,9512.62,54934.619999999995,1068
36,36.0,2227.06,847.188000000082,4.047,3.667,5118.3120000000345,6105.34,9451.31,11698.939999999944,1067
37,37.0,2223.09,844.780999999959,4.047,3.371,5153.343999999925,6133.34,9454.75,11682.869999999995,1066
38,38.0,2217.62,842.4059999997262,4.047,3.372,5139.374999999884,6119.37,9461.78,11684.380000000121,1065
39,39.0,2215.78,840.0,4.047,3.373,5128.765500000212,6112.25,9403.25,11626.149999999907,1064
40,40.0,2211.94,837.625,4.046,3.374,5118.375,6098.38,9370.75,11587.780000000028,1063
41,41.0,2210.78,837.5940000002738,4.047,3.375,5111.344000000274,6091.34,9374.19,11590.070000000065,1062
42,42.0,2208.31,837.5940000002738,4.047,3.375,5104.405999999959,6084.41,9339.41,11556.030000000028,1061
43,43.0,2206.56,835.186999999918,4.046,3.375,5097.219000000274,6077.22,9336.88,11548.439999999944,1060
44,44.0,2204.75,835.188000000082,4.046,3.375,5093.843999999808,6077.34,9377.75,11587.530000000028,1059
45,45.0,2202.75,830.4060000001919,4.045,3.376,5086.875,6070.38,9371.53,11579.309999999823,1058
47,47.0,2198.97,828.0,4.045,3.377,5072.734500000253,6049.25,9367.59,11571.619999999879,1056
48,48.0,2196.0,828.0,4.045,3.378,5069.343999999808,6049.34,9324.59,11527.0,1055
49,49.0,2196.28,828.0,4.045,3.379,5062.343999999808,6042.34,9311.34,11515.340000000084,1054
50,50.0,2195.34,828.0,4.045,3.378,5062.375,6042.38,9337.31,11537.719999999972,1053
51,51.0,2193.62,825.5940000002738,4.045,3.379,5055.280999999959,6035.28,9322.97,11521.659999999916,1052
52,52.0,2191.19,825.594000000041,4.045,3.379,5048.343999999808,6028.34,9342.97,11540.340000000084,1051
53,53.0,2190.19,820.811999999918,4.045,3.38,5048.344000000041,6028.34,9338.59,11533.780000000028,1050
54,54.0,2188.56,818.438000000082,4.044,3.381,5041.375,6021.38,9373.19,11566.879999999888,1049
55,55.0,2186.69,818.375,4.044,3.382,5034.375,6014.38,9320.06,11511.810000000056,1048
56,56.0,2186.12,818.375,4.045,3.382,5027.313000000082,6007.31,9352.5,11543.689999999944,1047
57,57.0,2183.88,816.0,4.045,3.384,5027.375,6007.38,9270.31,11459.440000000177,1046
58,58.0,2177.38,804.0,4.042,3.384,5020.311999999918,6000.31,9292.81,11475.309999999823,1045
59,59.0,2177.5,801.561999999918,4.025,3.622,4970.313000000082,5950.0,9388.94,54770.44000000018,1044
60,60.0,206845.79,204638.51333333342,4.272,3.178,76619.99599999981,88862.05,88862.05,221401.11999999988,1043
61,61.0,2182.37,807.6000000000931,4.004,3.399,5264.384000000078,6236.38,9773.89,11983.199999999953,1042
62,62.0,2172.0,816.0,4.006,3.386,5036.318999999901,5984.32,9413.98,11610.660000000149,1041
63,63.0,2180.16,819.0,4.007,3.385,5036.353000000119,5984.35,9368.35,11572.409999999916,1040
64,64.0,2178.78,822.0,4.009,3.384,5030.350999999791,5984.35,9403.74,11597.15000000014,1039
65,65.0,2172.0,816.8000000000466,4.009,3.386,5024.3869999998715,5984.39,9379.94,11570.5,1038
66,66.0,2172.0,815.0,4.01,3.386,5012.351000000257,5984.35,9401.28,11589.25,1037
67,67.0,2170.55,811.0,4.01,3.387,5005.150999999838,5984.35,9397.76,11583.009999999776,1036
68,68.0,2168.06,807.0,4.01,3.389,4994.351999999955,5948.35,9368.42,11551.130000000121,1035
69,69.0,2165.28,803.0,4.01,3.39,4988.350999999791,5948.35,9367.77,11547.810000000056,1034
70,70.0,2163.33,801.0154999999795,4.011,3.391,4976.320000000065,5948.32,9379.78,11557.85999999987,1033
71,71.0,2161.12,799.002583333524,4.012,3.391,4970.350999999791,5948.35,9342.05,11517.790000000037,1032
72,72.0,2159.2,796.8000000000466,4.012,3.392,4964.351999999955,5912.35,9347.07,11520.969999999972,1031
73,73.0,2156.83,798.0,4.012,3.393,4954.711999999592,5912.31,9339.45,11510.939999999944,1030
74,74.0,2154.05,795.0,4.011,3.394,4947.558999999659,5912.36,9307.84,11476.600000000093,1029
75,75.0,2151.75,789.6000000000931,4.011,3.396,4940.3589999999385,5912.36,9283.47,11449.899999999907,1028
76,76.0,2149.42,792.0,4.011,3.396,4934.219000000274,5912.22,9265.22,11429.240000000224,1027
77,77.0,2147.8,786.0,4.011,3.396,4928.360000000102,5876.36,9295.49,11457.939999999944,1026
78,78.0,2146.34,788.3999999999069,4.01,3.398,4922.34300000011,5876.34,9248.61,11409.60999999987,1025
79,79.0,2144.73,787.0,4.01,3.397,4918.760000000009,5876.36,9285.38,11444.770000000019,1024
80,80.0,2142.08,784.8000000000466,4.01,3.397,4916.3589999999385,5876.36,9248.61,11405.340000000084,1023
81,81.0,2139.3,783.1999999999534,4.009,3.398,4904.343999999808,5876.34,9207.89,11361.85999999987,1022
82,82.0,2137.73,783.0,4.009,3.399,4904.360000000102,5876.36,9225.64,11378.050000000047,1021
83,83.0,2134.31,776.0,4.008,3.4,4897.158999999985,5876.36,9216.38,11365.360000000102,1020
84,84.0,2142.28,775.1869999996852,4.022,3.742,4847.5,5831.0,9302.44,54656.28000000003,1019
85,85.0,2136.0,776.3999999999069,4.007,3.732,4868.405999999959,5840.41,9243.84,11410.75,1018
86,86.0,2139.31,776.0,4.007,3.402,4904.375,5876.38,9257.56,11411.469999999972,1017
87,87.0,2135.72,774.3999999999069,4.007,3.402,4897.1440000000875,5876.34,9237.19,11387.530000000028,1016
88,88.0,2132.59,771.0,4.006,3.403,4886.313000000315,5840.31,9234.84,11382.089999999851,1015
89,89.0,2130.44,771.0,4.007,3.403,4880.405999999959,5840.41,9209.53,11354.590000000084,1014
90,90.0,2128.31,768.8000000000466,4.007,3.405,4874.375,5840.38,9226.62,11369.75,1013
91,91.0,2125.91,768.0,4.007,3.406,4868.311999999685,5840.31,9177.66,11320.629999999888,1012
92,92.0,2123.91,763.1999999999534,4.006,3.405,4861.1440000000875,5840.34,9207.09,11345.690000000177,1011
93,93.0,2121.66,765.6000000000931,4.006,3.406,4850.3595000000205,5804.38,9173.06,11309.280000000028,1010
94,94.0,2120.38,768.0,4.006,3.407,4844.344000000041,5804.34,9201.41,11336.469999999972,1009
95,95.0,2118.44,762.0,4.005,3.408,4838.344000000041,5804.34,9217.75,11350.839999999851,1008
96,96.0,2116.59,764.3999999999069,4.004,3.408,4832.344000000041,5804.34,9152.34,11299.780000000028,1007
97,97.0,2114.94,764.3999999999069,4.005,3.408,4832.188000000315,5804.19,9141.94,11271.560000000056,1006
98,98.0,2113.81,762.3999999999069,4.005,3.408,4826.364499999909,5804.31,9164.31,11292.719999999972,1005
99,99.0,2112.31,763.0,4.005,3.409,4820.375,5768.38,9154.84,11281.880000000121,1004
100,100.0,2110.81,760.8000000000466,4.004,3.409,4814.342999999644,5768.34,9162.5,11288.0,1003
101,101.0,2109.38,760.8000000000466,4.004,3.41,4810.586999999592,5768.19,9174.31,11298.399999999907,1002
102,102.0,2107.88,760.8000000000466,4.004,3.41,4803.5502000001725,5768.34,9188.34,11315.219999999972,1001
103,103.0,2100.0,760.7999999998137,4.004,3.411,4796.344000000041,5768.34,9192.84,11313.660000000149,1000
104,104.0,2104.62,756.7999999998137,4.005,3.41,4796.311999999918,5768.31,9176.0,11295.25,999
105,105.0,2103.5,754.7999999998137,4.005,3.412,4789.111999999732,5732.31,9177.81,11296.0,998
106,106.0,2096.56,747.6000000000931,3.998,3.412,4765.725000000093,5716.12,9172.12,11308.810000000056,997
107,107.0,2093.94,741.6000000000931,4.0,3.413,4760.375,5732.38,9196.06,11304.629999999888,996
108,108.0,2102.5,741.625,4.015,3.669,4718.313000000082,5691.0,9212.12,54518.62000000011,995
109,109.0,203734.15,2669.9840000001714,4.271,3.261,74549.98300000001,86760.0,86760.0,218284.85999999987,994
110,110.0,2116.64,753.0,3.995,3.419,5098.720000000205,6092.32,9737.95,11879.169999999925,993
111,111.0,2118.75,759.6000000000931,3.998,3.413,4817.952000000048,5768.35,9260.35,11411.229999999981,992
112,112.0,2112.0,763.2000000001863,3.999,3.411,4825.151999999769,5768.35,9260.93,11392.189999999944,991
113,113.0,2112.0,764.3999999999069,4.0,3.411,4817.857000000309,5768.26,9290.05,11419.939999999944,990
114,114.0,2112.77,762.0,4.001,3.412,4810.720000000205,5768.32,9251.33,11378.820000000298,989
115,115.0,2100.0,762.0,4.002,3.412,4802.320999999996,5768.32,9269.53,11393.849999999627,988
116,116.0,2106.84,757.6000000000931,4.002,3.413,4796.319999999832,5732.32,9286.41,11407.930000000168,987
117,117.0,2103.33,756.0,4.002,3.415,4781.9509999998845,5732.35,9279.55,11397.510000000242,986
118,118.0,2100.29,750.0,4.003,3.416,4767.552000000607,5732.35,9256.54,11371.520000000019,985
119,119.0,2097.79,748.0,4.004,3.417,4760.351999999955,5732.35,9260.35,11392.349999999627,984
120,120.0,2094.88,746.3999999999069,4.004,3.419,4753.150999999605,5696.35,9224.35,11350.30000000028,983
121,121.0,2088.0,743.0,4.004,3.42,4738.626999999862,5696.23,9209.63,11316.60999999987,982
122,122.0,2088.0,740.7999999998137,4.003,3.421,4731.512000000104,5696.31,9205.08,11309.290000000037,981
123,123.0,2087.2,738.0,4.003,3.421,4724.48499999987,5696.48,9192.88,11294.75,980
124,124.0,2084.53,735.2000000001863,4.003,3.422,4712.375,5660.38,9176.34,11275.569999999832,979
125,125.0,2081.66,733.6000000000931,4.002,3.44,4706.375,5660.38,9164.53,11263.270000000019,978
126,126.0,2079.09,732.0,4.002,3.424,4700.344000000041,5660.34,9144.89,11238.660000000149,977
127,127.0,2077.28,730.3999999999069,4.001,3.425,4688.280999999959,5660.28,9160.06,11251.959999999963,976
128,128.0,2075.16,730.3855333332904,4.001,3.426,4688.344000000041,5660.34,9154.11,11244.0,975
129,129.0,2073.2,730.7999999998137,4.001,3.425,4681.174999999814,5624.38,9133.59,11221.439999999944,974
130,130.0,2071.2,728.7999999998137,4.001,3.427,4676.280999999959,5624.28,9115.91,11201.770000000019,973
131,131.0,2068.98,727.2000000001863,4.0,3.427,4670.375,5624.38,9099.22,11182.899999999907,972
132,132.0,2065.19,721.6000000000931,3.999,3.428,4664.343000000343,5624.34,9108.28,11188.110000000335,971
133,133.0,2070.62,720.0,4.013,3.677,4613.343999999575,5586.03,9190.53,54465.23999999976,970
134,134.0,2071.78,720.0,3.998,3.762,4622.343999999575,5588.34,9120.84,11217.720000000205,969
135,135.0,2064.0,724.0,3.999,3.431,4670.375,5624.38,9106.56,11190.709999999963,968
136,136.0,2065.97,720.0,3.998,3.43,4664.343999999575,5624.34,9159.69,11240.290000000037,967
137,137.0,2063.62,718.3999999999069,3.998,3.431,4652.25,5624.25,9160.12,11238.529999999795,966
138,138.0,2060.47,716.7999999998137,3.998,3.431,4645.174999999814,5588.38,9123.0,11198.060000000056,965
139,139.0,2058.25,714.0,3.998,3.432,4634.343999999575,5588.34,9116.34,11194.25,964
140,140.0,2056.31,715.2309999996796,3.997,3.432,4630.731600000523,5588.31,9098.22,11169.220000000205,963
141,141.0,2055.03,715.2000000001863,3.997,3.433,4623.575000000186,5588.38,9110.94,11180.619999999646,962
142,142.0,2052.91,713.6000000000931,3.997,3.433,4622.375,5588.38,9079.19,11146.660000000149,961
143,143.0,2051.09,712.0,3.996,3.451,4616.343000000343,5588.34,9109.69,11177.720000000205,960
144,144.0,2049.22,712.0,3.996,3.434,4609.143999999389,5552.34,9077.41,11141.30999999959,959
145,145.0,2047.91,710.3999999999069,3.996,3.434,4602.006000000518,5552.41,9101.44,11164.0,958
146,146.0,2040.0,710.3999999999069,3.996,3.435,4598.406000000425,5552.41,9066.94,11127.810000000056,957
147,147.0,2044.84,710.3999999999069,3.996,3.434,4592.343999999575,5552.34,9065.06,11124.470000000205,956
148,148.0,2043.81,710.3999999999069,3.995,3.435,4587.450000000186,5552.25,9079.19,11137.560000000056,955
149,149.0,2042.34,710.3999999999069,3.996,3.435,4586.313000000082,5552.31,9081.81,11138.850000000093,954
150,150.0,2040.16,706.3999999999069,3.995,3.435,4580.313000000082,5516.31,9075.88,11130.75,953
151,151.0,2038.72,706.3999999999069,3.996,3.436,4573.112999999896,5516.31,9071.69,11125.089999999851,952
152,152.0,2037.19,704.7999999998137,3.996,3.436,4568.343000000343,5516.34,9111.38,11163.189999999944,951
153,153.0,2035.56,704.7999999998137,3.996,3.437,4562.311999999918,5516.31,9080.31,11148.879999999888,950
154,154.0,2033.94,702.0,3.996,3.438,4556.438000000082,5516.44,9104.62,11153.180000000168,949
155,155.0,2028.0,699.2000000001863,3.996,3.439,4550.313000000082,5480.31,9055.56,11102.060000000056,948
156,156.0,2022.62,691.2000000001863,3.992,3.438,4544.313000000082,5480.31,9069.44,11106.569999999832,947
157,157.0,2029.56,688.811999999918,4.005,3.687,4466.25,5439.0,9116.56,54350.25,946
158,158.0,2053.06,705.6000000000931,3.988,3.78,4422.0991999995895,5408.48,9200.74,11278.520000000019,945
159,159.0,2053.6,714.0,3.991,3.435,4604.320000000298,5552.32,9191.74,11260.069999999832,944
160,160.0,2051.17,717.6019999999553,3.992,3.433,4609.150999999605,5552.35,9191.71,11257.540000000037,943
161,161.0,2048.29,715.2000000001863,3.992,3.434,4598.319999999832,5552.32,9178.21,11241.180000000168,942
162,162.0,2046.18,710.3999999999069,3.994,3.434,4587.556000000797,5552.36,9248.45,11309.25,941
163,163.0,2043.11,710.3999999999069,3.995,3.435,4580.321000000462,5516.32,9193.54,11251.330000000075,940
164,164.0,2038.98,704.3999999999069,3.995,3.436,4568.351000000257,5516.35,9143.77,11197.370000000112,939
165,165.0,2036.89,700.7999999998137,3.996,3.438,4556.3616666668095,5516.35,9209.02,11260.599999999627,938
166,166.0,2033.98,696.7999999998137,3.996,3.439,4544.35999999987,5480.36,9169.31,11217.959999999963,937
167,167.0,2030.53,697.0,3.996,3.44,4537.182999999728,5480.38,9125.28,11170.430000000168,936
168,168.0,2027.52,696.0,3.995,3.44,4526.319999999832,5480.32,9116.32,11178.080000000075,935
169,169.0,2025.47,692.0,3.995,3.442,4515.551000000443,5480.35,9095.52,11135.649999999907,934
170,170.0,2023.86,692.3999999999069,3.995,3.442,4508.35999999987,5444.36,9085.06,11123.60999999987,933
171,171.0,2021.77,690.3999999999069,3.994,3.442,4502.219000000507,5444.22,9134.08,11170.5,932
172,172.0,2019.2,688.7999999998137,3.994,3.443,4496.343000000343,5444.34,9028.44,11062.350000000093,931
173,173.0,2017.31,687.2000000001863,3.993,3.443,4493.929000000004,5444.33,9080.33,11124.399999999907,930
174,174.0,2014.24,685.6000000000931,3.993,3.444,4484.343000000343,5444.34,9031.03,11059.880000000354,929
175,175.0,2012.38,681.6000000000931,3.992,3.445,4478.343000000343,5444.34,9095.09,11122.040000000037,928
176,176.0,2009.95,684.0,3.992,3.447,4472.343999999575,5408.34,9028.34,11053.129999999888,927
177,177.0,2008.7,680.0,3.992,3.446,4466.358999999706,5408.36,9064.06,11087.419999999925,926
178,178.0,2007.0,680.3999999999069,3.992,3.447,4465.190999999642,5408.39,9032.42,11054.080000000075,925
179,179.0,2004.36,678.3999999999069,3.991,3.447,4457.975000000093,5408.38,9004.0,11023.049999999814,924
180,180.0,2000.25,675.2000000001863,3.99,3.448,4450.758999999613,5408.36,9010.69,11025.620000000112,923
181,181.0,2005.12,674.4069999996573,4.003,3.69,4385.859500000253,5355.0,9124.47,54333.720000000205,922
182,182.0,2007.69,675.2000000001863,3.989,3.775,4400.313000000082,5372.31,9056.47,11089.5,921
183,183.0,2004.0,675.2000000001863,3.99,3.45,4465.14400000032,5408.34,9085.19,11106.0,920
184,184.0,2003.03,674.0,3.99,3.449,4457.912000000011,5408.31,9008.31,11052.939999999944,919
185,185.0,2000.28,670.0,3.989,3.449,4448.375,5408.38,9030.75,11045.649999999907,918
186,186.0,1999.44,670.0,3.989,3.45,4442.375,5372.38,9013.88,11027.939999999944,917
187,187.0,1996.91,674.3999999999069,3.989,3.451,4436.375,5372.38,8961.62,10973.189999999944,916
188,188.0,1994.97,670.3999999999069,3.989,3.451,4429.143999999389,5372.34,8978.09,10987.680000000168,915
189,189.0,1993.69,670.3999999999069,3.988,3.451,4422.038000000175,5372.44,8993.34,11001.689999999944,914
190,190.0,1992.0,672.7999999998137,3.988,3.451,4414.74300000025,5372.34,8968.62,10975.939999999944,913
191,191.0,1980.0,672.7999999998137,3.988,3.452,4412.344000000507,5372.34,8987.81,10993.629999999888,912
192,192.0,1990.81,672.7999999998137,3.988,3.451,4406.343999999575,5336.38,9045.41,11050.899999999907,911
193,193.0,1988.59,670.7999999998137,3.988,3.453,4400.343000000343,5336.34,9035.66,11038.910000000149,910
194,194.0,1986.28,668.7999999998137,3.988,3.452,4394.375,5336.38,8972.38,11004.25,909
195,195.0,1980.0,664.7999999998137,3.988,3.453,4385.912000000011,5336.31,9004.22,11003.560000000056,908
196,196.0,1983.53,667.2000000001863,3.988,3.453,4378.743999999482,5336.34,9027.09,11025.25,907
197,197.0,1982.47,667.2000000001863,3.988,3.454,4376.311999999918,5336.31,9048.62,11045.839999999851,906
198,198.0,1980.59,663.2000000001863,3.988,3.454,4370.406000000425,5300.41,8976.69,10971.970000000205,905
199,199.0,1979.62,663.6000000000931,3.988,3.454,4364.375,5300.38,9005.84,11000.160000000149,904
200,200.0,1968.0,664.0,3.987,3.455,4364.343000000343,5300.34,8965.16,10957.659999999683,903
201,201.0,1968.0,664.0,3.987,3.455,4357.143999999389,5300.34,8973.84,10966.060000000056,902
202,202.0,1975.31,660.0,3.987,3.454,4352.311999999918,5300.31,8960.06,10950.0,901
203,203.0,1974.62,662.3999999999069,3.987,3.455,4346.313000000082,5300.31,8984.88,10974.120000000112,900
204,204.0,1961.12,646.7999999998137,3.982,3.455,4340.311999999918,5264.31,9040.0,11015.819999999832,899
