,Cycle_Index,Discharge Time (s),Decrement 3.6-3.4V (s),Max. Voltage Dischar. (V),Min. Voltage Charg. (V),Time at 4.15V (s),Time constant current (s),Charging time (s),Total time (s),RUL
1,1.0,2566.08,1161.9829999999997,3.667,3.214,5452.992000000001,6740.99,10938.33,14782.11,1107
2,2.0,7326.91,1161.9839999999967,4.243,3.225,5480.991999999995,6720.0,10620.32,19162.559999999998,1106
3,3.0,7293.63,1092.0,4.245,3.232,5452.991999999998,6699.01,10481.69,18990.75,1105
4,4.0,7288.38,1068.6719999999987,4.247,3.235,5459.995999999992,6706.01,10405.73,18909.509999999995,1104
6,6.0,64547.56,1075.65866666667,4.288,3.241,5452.992000000013,107277.51,107277.51,107345.30999999998,1102
7,7.0,3349.92,968.1726060606015,3.702,3.479,5109.218230769242,6040.42,6040.42,9591.100000000006,1101
8,8.0,6102.62,977.6000000000058,4.051,3.471,5116.140307692345,6035.49,6035.49,12318.690000000002,1100
9,9.0,6103.87,977.6017241379304,4.053,3.473,5102.296615384606,6017.44,6017.44,12302.020000000019,1099
10,10.0,6086.82,994.0024888888875,4.051,3.477,5091.419428571418,6005.5,6005.5,12273.079999999987,1098
11,11.0,423039.2,250320.39,4.269,3.136,220809.88700000002,429173.01,429173.01,461664.19999999995,1097
12,12.0,2275.2,936.0,4.043,3.901,1954.3359999998938,2927.33,6071.49,8361.98999999999,1096
13,13.0,2273.79,933.5999999999767,4.047,3.355,5254.86400000006,6224.35,9353.12,11631.96000000008,1095
14,14.0,2270.11,928.8009999998612,4.047,3.355,5254.89599999995,6224.38,9298.46,11573.699999999953,1094
15,15.0,2267.3,926.3990000000922,4.048,3.355,5244.352999999886,6217.38,9305.54,11577.859999999986,1093
16,16.0,2265.12,921.6009999999078,4.049,3.355,5237.344000000041,6210.34,9283.52,11553.660000000033,1092
17,17.0,2262.65,919.1990000000224,4.049,3.357,5233.875,6203.36,9281.54,11549.339999999967,1091
18,18.0,2259.91,914.3989999999758,4.049,3.356,5223.359999999986,6196.35,9255.62,11520.45000000007,1090
19,19.0,2257.31,912.0,4.049,3.356,5216.351999999955,6189.38,9265.79,11528.130000000005,1089
20,20.0,2254.62,907.204000000027,4.049,3.357,5209.25,6182.24,9240.35,11500.029999999912,1088
21,21.0,2252.45,904.7970000000205,4.049,3.358,5202.304000000004,6175.3,9250.82,11508.320000000065,1087
22,22.0,2250.34,904.7969999999041,4.049,3.359,5195.359000000055,6168.35,9242.56,11497.920000000042,1086
23,23.0,2245.25,900.0,4.049,3.359,5188.350999999908,6161.38,9244.69,11495.04999999993,1085
24,24.0,2246.45,900.0,4.05,3.36,5188.234000000055,6154.25,9207.52,11459.119999999995,1084
25,25.0,2245.28,897.5929999999935,4.05,3.359,5181.375,6154.36,9221.16,11471.540000000037,1083
26,26.0,2243.02,895.2029999999795,4.05,3.359,5174.375,6147.36,9199.48,11447.540000000037,1082
27,27.0,2241.41,892.795999999973,4.05,3.361,5167.375,6140.36,9191.81,11438.389999999898,1081
28,28.0,2240.0,890.405999999959,4.049,3.361,5160.344000000041,6133.38,9184.42,11429.350000000093,1080
29,29.0,2238.17,890.3910000000615,4.05,3.361,5160.390999999945,6133.41,9198.44,11441.669999999925,1079
30,30.0,2236.52,888.0,4.05,3.361,5153.3910000000615,6126.38,9159.78,11401.340000000084,1078
31,31.0,2235.73,888.0,4.05,3.362,5146.344000000041,6119.33,9192.64,11433.439999999944,1077
32,32.0,2233.47,885.609000000055,4.05,3.361,5146.3589999999385,6112.34,9152.89,11391.420000000042,1076
33,33.0,2232.03,885.594000000041,4.05,3.361,5139.359000000055,6112.34,9150.2,11387.23999999999,1075
34,34.0,2230.84,883.234000000055,4.05,3.362,5135.883000000031,6105.41,9170.05,11405.919999999925,1074
35,35.0,2228.47,878.405999999959,4.03,3.569,5096.344000000041,6069.0,9195.62,54628.5,1073
36,36.0,2234.94,876.0,4.046,3.651,5097.375,6077.38,9214.34,11464.75,1072
37,37.0,2235.78,880.780999999959,4.049,3.365,5139.375,6112.38,9176.91,11417.780000000028,1071
38,38.0,2233.66,878.4060000000754,4.05,3.363,5146.3120000000345,6112.28,9192.72,11431.5,1070
39,39.0,2230.59,876.0,4.049,3.364,5132.313000000198,6105.34,9164.84,11400.470000000088,1069
40,40.0,2228.0,873.5939999998081,4.049,3.364,5125.375,6098.38,9160.84,11393.899999999907,1068
41,41.0,2225.19,873.625,4.049,3.366,5118.375,6091.38,9146.94,11377.159999999916,1067
42,42.0,2223.62,871.188000000082,4.049,3.366,5111.375,6084.38,9146.94,11375.620000000112,1066
43,43.0,2221.56,871.2190000002738,4.049,3.366,5104.342999999877,6077.38,9123.84,11350.469999999972,1065
44,44.0,2220.12,868.813000000082,4.049,3.366,5097.343999999808,6070.34,9128.28,11353.439999999944,1064
45,45.0,2218.28,868.813000000082,4.049,3.367,5090.313000000082,6063.28,9129.06,11352.440000000177,1063
46,46.0,2215.88,866.405999999959,4.049,3.367,5083.344000000274,6056.38,9108.91,11329.839999999851,1062
47,47.0,2214.19,864.0,4.049,3.368,5076.313000000315,6049.34,9101.56,11320.810000000056,1061
48,48.0,2212.53,861.625,4.048,3.369,5069.438000000315,6042.44,9101.44,11324.909999999916,1060
49,49.0,2211.03,861.594000000041,4.048,3.369,5062.405999999959,6042.41,9101.28,11317.380000000121,1059
50,50.0,2209.88,861.5940000002738,4.048,3.369,5062.375,6035.34,9092.22,11307.060000000056,1058
51,51.0,2208.41,859.155999999959,4.048,3.37,5058.875,6035.38,9085.34,11298.75,1057
52,52.0,2207.22,856.811999999918,4.049,3.37,5055.282000000123,6028.28,9092.38,11304.689999999944,1056
53,53.0,2205.31,856.813000000082,4.048,3.37,5048.311999999685,6021.34,9085.41,11295.780000000028,1055
54,54.0,2203.88,852.0,4.048,3.371,5041.313000000082,6014.31,9112.38,11321.179999999935,1054
55,55.0,2201.88,852.0,4.048,3.372,5036.625,6009.56,9082.62,11289.570000000065,1053
56,56.0,2200.44,849.625,4.048,3.373,5034.375,6007.38,9098.56,11304.059999999823,1052
57,57.0,2199.0,849.625,4.048,3.373,5027.375,6000.38,9053.06,11257.120000000112,1051
58,58.0,2198.19,847.188000000082,4.048,3.373,5027.25,6000.19,9065.19,11268.439999999944,1050
59,59.0,2193.81,840.0,4.028,3.599,4991.313000000082,5957.0,9084.12,54481.939999999944,1049
60,60.0,206093.41,2969.9839999999385,4.272,3.173,70920.00400000019,82211.23,82211.23,220644.03000000003,1048
61,61.0,2194.53,842.0,4.009,3.423,5228.351999999955,6200.35,9438.5,11657.830000000075,1047
62,62.0,2194.49,846.0159999998286,4.012,3.377,5033.920999999857,5984.32,9142.69,11351.830000000075,1046
63,63.0,2191.71,843.6000000000931,4.012,3.376,5033.856000000145,5984.26,9117.54,11323.879999999888,1045
64,64.0,2189.12,841.0,4.013,3.377,5024.352000000188,5984.35,9097.7,11301.469999999972,1044
65,65.0,2186.4,836.9922499998938,4.013,3.378,5018.351999999955,5984.35,9099.9,11301.020000000019,1043
66,66.0,2183.71,837.6000000000931,4.013,3.379,5008.526999999769,5950.53,9077.05,11275.420000000158,1042
67,67.0,2180.77,836.0,4.013,3.38,4997.920000000158,5948.32,9065.77,11261.289999999804,1041
68,68.0,2177.86,832.0213333333377,4.013,3.381,4990.751000000164,5948.35,9031.77,11224.320000000065,1040
69,69.0,2175.68,828.0,4.012,3.382,4983.550999999978,5948.35,9046.43,11236.76000000001,1039
70,70.0,2173.66,828.0,4.012,3.383,4976.351999999955,5948.35,9053.34,11241.770000000019,1038
71,71.0,2172.1,828.0,4.013,3.383,4970.351999999955,5912.35,9031.2,11217.979999999981,1037
72,72.0,2170.2,824.0,4.013,3.383,4969.150999999838,5912.35,9027.17,11212.020000000019,1036
73,73.0,2168.09,824.0,4.013,3.383,4961.942999999737,5912.34,9018.23,11201.0,1035
74,74.0,2166.53,824.3999999999069,4.013,3.384,4954.758999999845,5912.36,9019.66,11200.830000000075,1034
75,75.0,2164.22,823.0,4.012,3.385,4952.313000000082,5912.31,8991.73,11172.770000000019,1033
76,76.0,2162.53,819.0,4.012,3.386,4946.311999999685,5912.31,8995.0,11172.199999999953,1032
77,77.0,2161.25,819.0,4.012,3.387,4940.311999999685,5876.31,9000.83,11176.699999999953,1031
78,78.0,2159.77,819.0,4.012,3.386,4934.3279999999795,5876.33,8998.78,11173.179999999935,1030
79,79.0,2158.69,820.8000000000466,4.012,3.387,4933.175000000047,5876.38,8998.47,11171.840000000084,1029
80,80.0,2156.77,818.0,4.012,3.387,4928.34300000011,5876.34,8979.42,11150.879999999888,1028
81,81.0,2155.42,816.0,4.012,3.387,4922.218999999808,5876.22,8971.0,11141.0,1027
82,82.0,2153.51,815.1999999999534,4.012,3.389,4916.344000000041,5876.34,8972.34,11140.51000000001,1026
83,83.0,2152.3,811.1999999999534,4.012,3.388,4910.327999999747,5876.33,8975.05,11141.98999999999,1025
84,84.0,2159.09,808.8130000003148,4.022,3.625,4872.344000000041,5838.03,9037.94,54401.14000000013,1024
85,85.0,2155.81,806.0,4.008,3.71,4868.344000000274,5840.34,9039.94,11220.899999999907,1023
86,86.0,2157.31,813.0,4.011,3.391,4911.574999999953,5876.38,9006.69,11178.689999999944,1022
87,87.0,2155.19,813.0,4.012,3.389,4916.3223333330825,5876.31,9007.97,11177.810000000056,1021
88,88.0,2152.44,813.0,4.012,3.39,4910.311999999685,5876.31,8983.75,11150.969999999972,1020
89,89.0,2150.47,809.0,4.012,3.39,4904.313000000315,5840.31,8985.16,11150.310000000056,1019
90,90.0,2148.97,809.6000000000931,4.012,3.39,4897.175000000047,5840.38,8978.56,11142.189999999944,1018
91,91.0,2146.84,807.6000000000931,4.011,3.39,4889.944000000134,5840.34,8974.09,11135.590000000084,1017
92,92.0,2144.81,810.0,4.012,3.391,4882.713000000222,5840.31,8951.81,11111.25,1016
93,93.0,2142.75,808.0,4.011,3.392,4880.311999999685,5840.31,8925.31,11082.719999999972,1015
94,94.0,2141.28,806.3999999999069,4.011,3.392,4874.313000000315,5840.31,8956.31,11112.25,1014
95,95.0,2139.09,803.0,4.011,3.394,4868.342999999644,5804.34,8940.06,11093.820000000065,1013
96,96.0,2137.5,803.0,4.01,3.393,4861.175000000047,5804.38,8942.91,11095.060000000056,1012
97,97.0,2136.28,801.0,4.011,3.394,4856.469000000041,5804.47,8917.78,11068.75,1011
98,98.0,2135.22,802.8000000000466,4.011,3.395,4853.975000000093,5804.38,8929.28,11079.279999999795,1010
99,99.0,2133.88,800.8000000000466,4.011,3.394,4850.311999999685,5804.31,8953.0,11101.560000000056,1009
100,100.0,2131.72,798.0,4.01,3.395,4844.313000000315,5804.31,8909.22,11055.560000000056,1008
101,101.0,2130.09,799.1999999999534,4.01,3.396,4838.342999999644,5804.34,8910.28,11055.159999999916,1007
102,102.0,2129.06,797.0,4.01,3.396,4832.311999999685,5768.31,8927.66,11071.440000000177,1006
103,103.0,2127.34,795.0,4.01,3.397,4826.405999999959,5768.41,8937.0,11078.939999999944,1005
104,104.0,2125.94,793.0,4.01,3.397,4820.344000000274,5768.34,8946.97,11087.560000000056,1004
105,105.0,2124.56,793.6000000000931,4.01,3.397,4817.975000000093,5768.38,8931.25,11070.439999999944,1003
106,106.0,2123.19,789.6000000000931,4.01,3.398,4814.311999999918,5768.31,8927.19,11064.999999999767,1002
107,107.0,2117.75,780.0,4.004,3.398,4780.688000000082,5752.69,8974.81,11107.120000000112,1001
108,108.0,2126.06,780.0,4.019,3.649,4760.375,5726.0,8928.62,54258.689999999944,1000
109,109.0,202763.4,200680.99000017624,4.271,3.25,68969.98300000001,80224.67,80224.67,217314.22999999998,999
110,110.0,2137.15,792.0,4.002,3.434,5066.352000000421,6056.35,9332.35,11503.39000000013,998
111,111.0,2136.61,791.0,4.005,3.4,4844.319000000134,5804.32,9000.03,11151.299999999814,997
112,112.0,2133.85,789.0,4.005,3.399,4844.351999999955,5804.35,8965.02,11113.570000000298,996
113,113.0,2131.52,788.3999999999069,4.005,3.4,4832.320000000298,5768.32,8955.07,11101.21999999974,995
114,114.0,2128.74,786.3999999999069,4.005,3.402,4826.320999999996,5768.32,8959.07,11102.520000000019,994
115,115.0,2126.11,782.3999999999069,4.006,3.402,4820.351999999955,5768.35,8948.45,11089.180000000168,993
116,116.0,2122.91,779.0,4.006,3.404,4810.720999999903,5768.32,8933.53,11071.270000000019,992
117,117.0,2119.97,778.7999999998137,4.005,3.404,4802.326166666113,5768.32,8923.42,11058.040000000037,991
118,118.0,2116.64,774.0,4.005,3.405,4796.320999999996,5732.32,8908.93,11040.19999999972,990
119,119.0,2113.47,775.2000000001863,4.005,3.406,4784.351999999955,5732.35,8890.14,11018.14000000013,989
120,120.0,2111.74,775.2000000001863,4.005,3.407,4778.352000000421,5732.35,8911.81,11038.240000000224,988
121,121.0,2109.44,771.2000000001863,4.005,3.408,4772.319999999832,5732.32,8891.33,11015.560000000056,987
122,122.0,2107.62,769.2000000001863,4.005,3.408,4766.359000000171,5696.36,8907.69,11029.889999999665,986
123,123.0,2104.86,769.6000000000931,4.005,3.408,4760.234000000171,5696.23,8847.2,10966.75,985
124,124.0,2102.95,765.6000000000931,4.004,3.409,4753.158999999985,5696.36,8871.59,10989.220000000205,984
125,125.0,2101.16,768.0,4.005,3.41,4745.866000000387,5696.27,8888.48,11004.339999999851,983
126,126.0,2099.27,768.0,4.005,3.41,4736.311999999918,5696.31,8879.8,10993.740000000224,982
127,127.0,2096.92,764.0,4.004,3.411,4730.327999999747,5660.33,8851.17,10962.779999999795,981
128,128.0,2095.08,762.0,4.004,3.412,4724.312999999616,5660.31,8845.41,10955.229999999981,980
129,129.0,2093.73,764.3999999999069,4.005,3.412,4718.359000000171,5660.36,8843.59,10951.970000000205,979
130,130.0,2092.0,762.3999999999069,4.005,3.429,4712.280999999959,5660.28,8834.27,10943.35999999987,978
131,131.0,2090.69,762.3999999999069,4.005,3.412,4709.833999999799,5660.23,8841.16,10946.529999999795,977
132,132.0,2089.28,763.0,4.005,3.412,4702.852999999654,5660.45,8840.7,10944.670000000391,976
133,133.0,2094.0,753.5930000003427,4.014,3.666,4648.438000000082,5621.0,8896.56,54194.57999999961,975
134,134.0,2092.16,754.3999999999069,4.0,3.752,4646.311999999918,5624.31,8928.56,11046.060000000056,974
135,135.0,2093.72,759.0,4.004,3.415,4702.7440000004135,5660.34,8858.41,10966.850000000093,973
136,136.0,2091.19,759.0,4.004,3.412,4709.943999999668,5660.34,8839.16,10944.930000000168,972
137,137.0,2089.06,760.7813999997452,4.004,3.412,4700.375,5660.38,8857.78,10961.439999999944,971
138,138.0,2086.59,758.0,4.004,3.415,4694.25,5624.25,8840.78,10942.060000000056,970
139,139.0,2084.28,757.2000000001863,4.004,3.414,4682.343999999575,5624.34,8842.62,10941.600000000093,969
140,140.0,2082.16,755.2000000001863,4.004,3.414,4676.311999999918,5624.31,8817.47,10914.21999999974,968
141,141.0,2080.94,755.2000000001863,4.004,3.415,4670.343000000343,5624.34,8821.78,10917.370000000112,967
142,142.0,2079.16,757.0,4.004,3.415,4666.743999999482,5624.34,8809.34,10903.189999999944,966
143,143.0,2077.59,753.6000000000931,4.003,3.415,4659.575000000186,5624.38,8813.59,10905.879999999888,965
144,144.0,2075.06,752.0,4.003,3.416,4652.25,5588.25,8802.81,10892.53000000026,964
145,145.0,2073.09,750.3999999999069,4.003,3.417,4646.311999999918,5588.31,8800.16,10887.96999999974,963
146,146.0,2071.53,750.3999999999069,4.003,3.418,4640.313000000082,5588.31,8807.06,10893.399999999907,962
147,147.0,2069.91,747.0,4.003,3.418,4634.343000000343,5588.34,8807.34,10891.94000000041,961
148,148.0,2068.38,748.7999999998137,4.003,3.419,4630.711999999825,5588.31,8773.62,10856.80999999959,960
149,149.0,2067.78,747.0,4.003,3.419,4623.543999999762,5588.34,8823.97,10906.410000000149,959
150,150.0,2066.16,744.7999999998137,4.003,3.419,4622.343000000343,5552.34,8811.38,10892.060000000056,958
151,151.0,2063.91,742.7999999998137,4.003,3.42,4616.343999999575,5552.34,8787.56,10866.120000000112,957
152,152.0,2062.81,742.0,4.003,3.42,4610.344000000507,5552.34,8793.12,10870.569999999832,956
153,153.0,2061.5,742.0,4.003,3.42,4604.343000000343,5552.34,8797.41,10873.589999999851,955
154,154.0,2060.19,742.0,4.003,3.421,4601.975000000093,5552.38,8794.88,10869.75,954
155,155.0,2058.06,739.2000000001863,4.002,3.421,4594.649999999907,5552.25,8767.12,10839.880000000354,953
156,156.0,2057.06,739.2000000001863,4.001,3.422,4592.313000000082,5552.31,8764.69,10836.429999999702,952
157,157.0,2060.56,732.0,4.011,3.678,4543.311999999918,5509.0,8832.31,54097.0,951
158,158.0,2075.2,738.0,3.996,3.775,4493.952000000048,5480.35,8862.53,10962.400000000373,950
159,159.0,2074.4,742.0,3.998,3.42,4640.2559999995865,5588.26,8865.12,10954.149999999907,949
160,160.0,2071.07,739.2000000001863,3.998,3.419,4640.350999999791,5588.35,8833.41,10919.129999999888,948
161,161.0,2067.65,739.2000000001863,3.998,3.42,4628.351000000257,5588.35,8820.99,10903.330000000075,947
162,162.0,2064.54,735.2000000001863,3.999,3.421,4616.319999999832,5552.32,8809.34,10888.509999999776,946
163,163.0,2061.09,733.0,3.999,3.422,4610.320000000298,5552.32,8773.66,10849.439999999944,945
164,164.0,2058.23,733.6000000000931,3.998,3.423,4601.952000000048,5552.35,8793.66,10866.560000000056,944
165,165.0,2055.48,729.6000000000931,3.998,3.424,4592.39000000013,5516.39,8780.55,10850.689999999944,943
166,166.0,2052.96,728.0,3.998,3.425,4586.313000000082,5516.31,8779.52,10847.170000000391,942
167,167.0,2050.2,726.0,3.998,3.425,4574.351999999955,5516.35,8720.35,10813.149999999907,941
168,168.0,2047.97,724.0,3.998,3.426,4568.351999999955,5516.35,8759.27,10821.889999999665,940
169,169.0,2045.83,722.3999999999069,3.998,3.428,4558.719999999739,5516.32,8749.31,10809.860000000335,939
170,170.0,2044.19,722.3999999999069,3.998,3.427,4551.544000000227,5480.34,8745.83,10804.659999999683,938
171,171.0,2042.28,722.3999999999069,3.998,3.428,4550.343999999575,5480.34,8723.2,10780.14000000013,937
172,172.0,2040.61,719.0,3.998,3.428,4544.358999999706,5480.36,8714.94,10770.270000000019,936
173,173.0,2039.05,719.0,3.998,3.429,4537.128000000026,5480.33,8727.41,10781.120000000112,935
174,174.0,2037.56,718.7999999998137,3.998,3.429,4529.958999999799,5480.36,8726.98,10779.029999999795,934
175,175.0,2035.55,718.0,3.997,3.429,4522.711999999825,5480.31,8713.98,10764.160000000149,933
176,176.0,2033.83,715.2000000001863,3.997,3.43,4515.544000000693,5444.34,8718.56,10767.020000000019,932
177,177.0,2031.94,715.2000000001863,3.997,3.431,4508.35999999987,5444.36,8694.53,10741.180000000168,931
178,178.0,2031.11,715.2000000001863,3.997,3.431,4502.35999999987,5444.36,8705.19,10750.909999999683,930
179,179.0,2029.67,717.0,3.997,3.431,4502.312999999616,5444.31,8691.36,10735.660000000149,929
180,180.0,2028.8,717.6000000000931,3.998,3.432,4496.390999999363,5444.39,8703.11,10746.569999999832,928
181,181.0,2031.12,708.0,4.006,3.685,4445.25,5411.03,8790.81,54026.130000000354,927
182,182.0,2029.59,709.0,3.993,3.769,4430.406999999657,5372.41,8775.78,10830.619999999646,926
183,183.0,2032.97,717.6000000000931,3.997,3.435,4493.9440000006,5444.34,8717.38,10765.0,925
184,184.0,2030.62,717.6000000000931,3.997,3.432,4508.311999999918,5444.31,8718.53,10763.790000000037,924
185,185.0,2028.38,713.6000000000931,3.997,3.431,4501.112999999896,5444.31,8725.28,10768.28000000026,923
186,186.0,2026.41,712.0,3.997,3.432,4490.29749999987,5444.28,8720.16,10761.279999999795,922
187,187.0,2024.16,712.0,3.997,3.452,4484.343999999575,5408.34,8735.0,10776.180000000168,921
188,188.0,2022.09,710.3999999999069,3.996,3.434,4478.343999999575,5408.34,8725.03,10761.819999999832,920
189,189.0,2020.03,708.7999999998137,3.996,3.434,4472.311999999918,5408.31,8719.88,10754.560000000056,919
190,190.0,2018.28,706.7999999998137,3.996,3.434,4466.313000000082,5408.31,8708.94,10741.939999999944,918
191,191.0,2016.78,706.7999999998137,3.996,3.435,4460.343000000343,5408.34,8715.31,10746.620000000112,917
192,192.0,2014.97,707.2000000001863,3.996,3.434,4454.343000000343,5408.34,8719.66,10749.25,916
193,193.0,2013.44,703.2000000001863,3.996,3.435,4450.74300000025,5372.34,8711.62,10739.689999999944,915
194,194.0,2011.44,705.0,3.995,3.438,4442.313000000082,5372.31,8707.38,10733.620000000112,914
195,195.0,2009.38,701.6000000000931,3.996,3.436,4436.25,5372.25,8696.59,10720.629999999888,913
196,196.0,2007.97,699.6000000000931,3.996,3.437,4430.343999999575,5372.34,8691.69,10714.339999999851,912
197,197.0,2005.97,700.0,3.995,3.437,4424.218000000343,5372.22,8674.12,10696.880000000354,911
198,198.0,2005.22,700.0,3.995,3.438,4421.943999999668,5372.34,8689.56,10709.409999999683,910
199,199.0,2004.75,697.6000000000931,3.995,3.439,4418.343999999575,5372.34,8707.19,10726.709999999963,909
200,200.0,2003.03,700.0,3.995,3.438,4414.711999999825,5336.31,8690.78,10708.320000000298,908
201,201.0,2001.25,696.0,3.995,3.438,4412.313000000082,5336.31,8668.47,10684.369999999646,907
202,202.0,2000.0,698.3999999999069,3.995,3.438,4406.218999999575,5336.22,8684.81,10699.5,906
203,203.0,1998.56,698.3999999999069,3.994,3.44,4400.375,5336.38,8694.19,10707.5,905
204,204.0,1997.62,696.7999999998137,3.994,3.44,4400.375,5336.38,8684.38,10709.880000000354,904
205,205.0,1997.5,688.811999999918,4.002,3.691,4340.375,5299.0,8713.88,53915.5,903
