,Cycle_Index,Discharge Time (s),Decrement 3.6-3.4V (s),Max. Voltage Dischar. (V),Min. Voltage Charg. (V),Time at 4.15V (s),Time constant current (s),Charging time (s),Total time (s),RUL
1,1.0,2587.94,1231.999,3.661,3.223,5383.009,6678.02,10856.83,14720.42,1107
2,2.0,7364.06,1271.680666666667,4.235,3.235,5432.0,6678.02,10564.77,19144.15,1106
3,3.0,7344.54,1200.4959999999992,4.237,3.237,5424.989000000001,6671.01,10456.58,19016.449999999997,1105
4,4.0,7334.56,1166.6549999999916,4.238,3.238,5418.015999999996,6671.01,10371.2,18920.870000000003,1104
6,6.0,64881.41,1172.4959999999992,4.284,3.244,5411.008000000002,107634.62,107634.62,107702.49,1102
7,7.0,3240.0,1019.1016551724169,3.699,3.485,5123.062153846142,6029.98,6029.98,9575.559999999998,1101
8,8.0,6029.98,1032.5808571428643,4.046,3.475,5129.984000000026,6029.98,6029.98,12299.449999999983,1100
9,9.0,6029.99,1039.4737662338011,4.047,3.477,5116.140307692316,6029.98,6029.98,12273.220000000001,1099
10,10.0,6029.98,1052.6793749999779,4.045,3.481,5102.293846153829,5940.0,5940.0,12241.180000000022,1098
11,11.0,423224.85,170899.92099999997,4.269,3.119,219484.53199999998,87463.88,430308.91,462773.68999999994,1097
12,12.0,2261.02,878.3989999999758,4.04,3.9,1968.3199999999488,2934.34,6238.34,8519.550000000047,1096
13,13.0,2257.09,876.0,4.042,3.375,5216.319999999949,6182.34,9514.34,11782.23999999999,1095
14,14.0,2253.6,873.6000000000931,4.043,3.376,5209.248000000138,6175.23,9486.24,11750.619999999995,1094
15,15.0,2251.2,871.1999999999534,4.044,3.376,5202.238000000012,6161.25,9486.24,11745.410000000033,1093
16,16.0,2248.8,868.7970000000205,4.044,3.376,5195.3279999999795,6161.34,9451.33,11705.53999999992,1092
17,17.0,2244.0,864.0,4.044,3.377,5188.352000000072,6154.37,9423.36,11680.790000000037,1091
18,18.0,2241.6,859.2029999999795,4.045,3.376,5181.342999999877,6147.33,9430.34,11679.5,1090
19,19.0,2239.2,859.2029999999795,4.045,3.378,5174.491999999969,6133.5,9416.48,11664.790000000037,1089
20,20.0,2236.8,854.4060000000754,4.045,3.377,5167.359000000055,6126.37,9402.37,11652.229999999981,1088
21,21.0,2234.4,849.6009999999078,4.045,3.378,5153.343999999925,6119.33,9416.32,11661.25,1087
22,22.0,2232.0,849.594000000041,4.045,3.378,5146.375,6112.35,9402.38,11642.170000000042,1086
23,23.0,2227.2,847.2029999999795,4.045,3.38,5139.3279999999795,6105.35,9353.35,11593.669999999925,1085
24,24.0,2229.61,844.7970000000205,4.046,3.379,5139.359999999986,6098.38,9360.36,11600.930000000051,1084
25,25.0,2227.2,842.405999999959,4.046,3.379,5132.3279999999795,6091.33,9360.33,11596.819999999949,1083
26,26.0,2224.8,840.0,4.045,3.379,5125.375,6084.34,9325.38,11559.630000000005,1082
27,27.0,2222.41,835.2029999999795,4.045,3.38,5118.343999999925,6077.34,9360.33,11591.479999999981,1081
28,28.0,2220.0,835.188000000082,4.045,3.379,5111.3279999999795,6077.34,9318.34,11545.600000000093,1080
29,29.0,2217.59,832.7970000000205,4.045,3.38,5104.405999999959,6063.42,9346.42,11574.679999999935,1079
30,30.0,2215.2,828.0,4.045,3.381,5097.375,6063.36,9294.42,11515.660000000033,1078
31,31.0,2212.8,828.0,4.046,3.382,5090.375,6056.36,9311.36,11535.199999999953,1077
32,32.0,2212.8,825.609000000055,4.045,3.382,5090.375,6049.38,9283.36,11502.390000000014,1076
33,33.0,2210.41,823.2029999999795,4.045,3.381,5083.3279999999795,6042.33,9248.31,11466.080000000075,1075
34,34.0,2208.0,820.8129999999655,4.045,3.383,5076.344000000041,6035.36,9269.38,11483.889999999898,1074
35,35.0,2210.41,818.405999999959,4.029,3.702,5047.030999999959,6013.0,9324.0,54450.85000000009,1073
36,36.0,2215.22,820.7820000000065,4.045,3.687,5065.875,6035.38,9346.38,11880.30999999994,1072
37,37.0,2212.81,818.405999999959,4.045,3.384,5090.343999999925,6056.34,9318.34,11539.0,1071
38,38.0,2208.0,816.0,4.045,3.383,5083.3120000000345,6049.34,9306.03,11521.30999999994,1070
39,39.0,2205.59,811.2179999998771,4.045,3.385,5069.375,6035.34,9297.38,11513.440000000177,1069
40,40.0,2203.22,811.1880000003148,4.045,3.385,5062.344000000274,6028.34,9290.34,11504.119999999879,1068
41,41.0,2200.81,808.8130000003148,4.045,3.386,5055.375,6014.38,9283.38,11491.630000000121,1067
42,42.0,2198.41,808.811999999918,4.045,3.386,5048.342999999877,6014.38,9248.34,11456.399999999907,1066
43,43.0,2198.59,806.405999999959,4.045,3.387,5043.593999999808,6009.56,9271.59,11476.070000000065,1065
44,44.0,2196.0,806.4070000001229,4.045,3.387,5034.344000000274,6000.31,9227.34,11433.089999999851,1064
45,45.0,2193.59,801.594000000041,4.045,3.387,5027.343999999808,5986.38,9262.38,11462.910000000149,1063
46,46.0,2191.19,801.5929999998771,4.045,3.388,5020.344000000274,5979.38,9220.34,11422.780000000028,1062
47,47.0,2188.78,796.8119999996852,4.044,3.389,5013.313000000315,5972.31,9234.31,11432.969999999972,1061
48,48.0,2186.41,799.1869999996852,4.044,3.391,5006.375,5965.38,9241.38,11436.339999999851,1060
49,49.0,2186.38,796.8130000003148,4.045,3.39,4999.343999999808,5965.34,9192.31,11389.280000000028,1059
50,50.0,2184.0,794.4060000001919,4.045,3.391,4999.344000000041,5958.34,9192.31,11388.060000000056,1058
51,51.0,2181.59,794.4060000001919,4.045,3.391,4992.342999999877,5951.34,9178.34,11371.540000000037,1057
52,52.0,2179.19,794.4059999997262,4.045,3.391,4985.375,5944.34,9199.34,11387.310000000056,1056
53,53.0,2176.78,789.5939999998081,4.044,3.392,4978.219000000041,5944.19,9157.22,11346.339999999851,1055
54,54.0,2176.81,789.625,4.044,3.393,4974.813000000082,5937.38,9178.31,11367.5,1054
55,55.0,2174.44,787.186999999918,4.044,3.393,4971.375,5930.38,9234.38,11416.189999999944,1053
56,56.0,2174.38,787.188000000082,4.044,3.395,4964.311999999918,5923.31,9170.5,11350.25,1052
57,57.0,2172.0,784.813000000082,4.044,3.394,4957.311999999918,5916.25,9178.31,11359.370000000112,1051
58,58.0,2169.62,787.186999999918,4.044,3.394,4957.311999999918,5916.31,9136.31,11314.820000000065,1050
59,59.0,2169.56,782.438000000082,4.027,3.725,4928.0,5894.0,9198.0,54281.55999999982,1049
60,60.0,205151.23,2849.9679999996442,4.272,3.178,74009.98200000008,85860.0,85860.0,219401.9500000002,1048
61,61.0,2172.0,779.9844999997877,4.008,3.388,5258.320000000065,6236.32,9611.17,11811.809999999823,1047
62,62.0,2172.0,784.8000000000466,4.008,3.398,4988.319999999832,5948.32,9260.32,11462.110000000102,1046
63,63.0,2160.0,784.8000000000466,4.008,3.398,4976.320000000065,5912.32,9252.74,11438.050000000047,1045
64,64.0,2160.0,784.8000000000466,4.008,3.399,4970.316000000108,5912.32,9224.32,11425.439999999944,1044
65,65.0,2160.0,783.0,4.008,3.399,4964.382999999914,5912.38,9224.38,11423.199999999953,1043
66,66.0,2160.0,780.8000000000466,4.008,3.401,4954.751999999862,5912.35,9224.36,11407.170000000158,1042
67,67.0,2148.0,778.8000000000466,4.009,3.402,4946.320999999996,5876.32,9224.32,11402.679999999935,1041
68,68.0,2148.0,776.8000000000466,4.008,3.403,4940.350999999791,5876.35,9188.35,11367.040000000037,1040
69,69.0,2148.0,772.8000000000466,4.008,3.404,4928.320000000065,5876.32,9188.32,11359.75,1039
70,70.0,2148.0,772.8000000000466,4.009,3.404,4922.311999999918,5876.31,9152.31,11328.069999999832,1038
71,71.0,2148.0,772.8000000000466,4.009,3.405,4916.351999999955,5876.35,9152.35,11326.590000000084,1037
72,72.0,2147.78,772.8000000000466,4.009,3.405,4910.360000000102,5840.36,9116.36,11308.610000000102,1036
73,73.0,2136.0,770.0,4.009,3.406,4904.3589999999385,5840.36,9152.36,11315.639999999898,1035
74,74.0,2136.0,768.0,4.009,3.407,4897.1440000000875,5840.34,9116.34,11288.330000000075,1034
75,75.0,2136.0,767.1999999999534,4.009,3.407,4889.9590000002645,5840.36,9116.36,11290.26000000001,1033
76,76.0,2136.0,763.1999999999534,4.008,3.408,4882.680999999866,5840.28,9149.11,11302.819999999832,1032
77,77.0,2136.0,763.1999999999534,4.009,3.409,4874.344000000041,5804.34,9116.34,11285.370000000112,1031
78,78.0,2124.0,763.1999999999534,4.009,3.409,4868.280999999959,5804.28,9116.28,11289.800000000047,1030
79,79.0,2124.0,763.1999999999534,4.009,3.409,4868.328000000212,5804.33,9116.33,11274.75,1029
80,80.0,2124.0,759.0,4.009,3.41,4856.313000000315,5804.31,9080.31,11257.799999999814,1028
81,81.0,2124.0,757.6000000000931,4.009,3.411,4850.360000000102,5804.36,9080.36,11246.870000000112,1027
82,82.0,2124.0,753.6000000000931,4.009,3.411,4844.313000000082,5804.31,9116.31,11269.370000000112,1026
83,83.0,2124.0,756.0,4.009,3.412,4838.344000000041,5768.34,9080.34,11244.23999999999,1025
84,84.0,2133.59,753.625,4.023,3.749,4809.0,5775.03,9093.0,54146.419999999925,1024
85,85.0,2124.0,752.3999999999069,4.007,3.74,4817.943999999901,5768.34,9152.34,11617.810000000056,1023
86,86.0,2124.0,752.0,4.008,3.413,4846.743999999948,5804.34,9116.34,11264.659999999916,1022
87,87.0,2124.0,752.3999999999069,4.008,3.413,4838.312999999849,5768.31,9044.31,11217.219999999972,1021
88,88.0,2112.0,750.3999999999069,4.008,3.414,4826.311999999918,5768.31,9116.31,11255.620000000112,1020
89,89.0,2112.0,747.0,4.008,3.415,4820.344000000041,5768.34,9044.34,11210.0,1019
90,90.0,2112.0,747.0,4.009,3.415,4814.3285000000615,5768.31,9044.31,11209.289999999804,1018
91,91.0,2112.0,748.8000000000466,4.009,3.415,4808.219000000041,5732.22,9044.22,11188.0,1017
92,92.0,2112.0,744.8000000000466,4.009,3.417,4802.344000000041,5732.34,9044.34,11206.930000000168,1016
93,93.0,2112.0,744.0,4.008,3.416,4790.312000000151,5732.31,9044.31,11183.310000000056,1015
94,94.0,2100.0,745.1999999999534,4.008,3.417,4784.344000000041,5732.34,9044.34,11186.659999999916,1014
95,95.0,2100.0,739.1999999999534,4.008,3.417,4778.375,5732.38,9044.38,11201.840000000084,1013
96,96.0,2100.0,741.0,4.008,3.418,4772.343999999808,5696.34,9044.34,11166.539999999804,1012
97,97.0,2100.0,741.6000000000931,4.008,3.419,4766.34300000011,5696.34,9044.34,11177.370000000112,1011
98,98.0,2103.12,741.6000000000931,4.008,3.419,4760.312999999849,5696.31,9044.31,11166.34999999986,1010
99,99.0,2100.0,737.6000000000931,4.008,3.419,4754.375,5696.38,9008.38,11134.120000000112,1009
100,100.0,2088.0,738.0,4.007,3.42,4748.375,5696.38,9008.38,11125.969999999972,1008
101,101.0,2088.0,738.3999999999069,4.007,3.42,4742.312000000151,5696.31,9008.31,11128.530000000028,1007
102,102.0,2088.0,734.3999999999069,4.006,3.421,4731.543999999762,5660.34,9008.34,11136.659999999916,1006
103,103.0,2088.0,736.8000000000466,4.006,3.421,4730.406000000192,5660.41,8972.41,11091.5,1005
104,104.0,2088.0,732.8000000000466,4.006,3.421,4724.312999999849,5660.31,8972.31,11109.060000000056,1004
105,105.0,2088.0,734.0413333335891,4.006,3.422,4717.175000000047,5660.38,8972.38,11093.059999999823,1003
106,106.0,2088.0,731.2000000001863,4.006,3.423,4712.437999999616,5660.44,8936.44,11074.94000000041,1002
107,107.0,2088.0,729.0,4.005,3.423,4658.475000000093,5608.88,8956.88,11097.80999999959,1001
108,108.0,2097.62,727.1870000003837,4.019,3.76,4711.0,5677.0,9037.0,54047.25,1000
109,109.0,202546.39,199486.39400000032,4.271,3.234,72269.97999999998,84060.0,84060.0,216817.31000000006,999
110,110.0,2100.0,732.0,4.001,3.398,5108.416000000201,6094.82,9550.82,11698.240000000224,998
111,111.0,2100.0,735.0,4.001,3.425,4766.319999999832,5696.32,9116.32,11244.100000000093,997
112,112.0,2100.0,733.0,4.002,3.426,4760.351999999955,5696.35,9080.35,11208.799999999814,996
113,113.0,2100.0,729.0,4.002,3.426,4754.449000000022,5696.45,9044.45,11193.279999999795,995
114,114.0,2088.0,727.1875999998301,4.002,3.427,4745.952000000048,5696.35,9044.35,11182.330000000075,994
115,115.0,2088.0,729.0,4.002,3.427,4736.351999999955,5660.35,9044.35,11175.850000000093,993
116,116.0,2088.0,725.6000000000931,4.002,3.428,4724.319999999832,5660.32,9008.32,11144.03000000026,992
117,117.0,2076.0,723.6000000000931,4.002,3.43,4717.151999999769,5660.35,9008.35,11132.029999999795,991
118,118.0,2076.03,723.5936000002548,4.001,3.43,4706.351999999955,5660.35,9008.35,11127.830000000075,990
119,119.0,2076.0,724.0,4.002,3.431,4695.552000000142,5624.35,9008.35,11119.179999999702,989
120,120.0,2076.0,724.0,4.001,3.431,4688.319999999832,5624.32,9008.32,11126.75,988
121,121.0,2076.0,720.0,4.002,3.432,4681.151999999303,5624.35,9008.36,11111.610000000335,987
122,122.0,2064.0,720.0,4.002,3.432,4673.897000000346,5624.3,8972.3,11079.299999999814,986
123,123.0,2064.0,720.0,4.002,3.432,4666.759000000078,5588.36,9008.36,11103.939999999944,985
124,124.0,2064.0,718.3999999999069,4.002,3.433,4658.359000000171,5588.36,8936.36,11056.860000000335,984
125,125.0,2064.0,714.3999999999069,4.002,3.434,4652.343999999575,5588.34,8972.34,11068.21999999974,983
126,126.0,2064.0,712.7999999998137,4.001,3.435,4640.327999999747,5588.33,8936.33,11041.510000000242,982
127,127.0,2052.0,712.7999999998137,4.001,3.435,4634.359000000171,5588.36,8936.36,11036.46999999974,981
128,128.0,2052.0,712.7999999998137,4.001,3.435,4623.544000000227,5552.34,8936.34,11047.10999999987,980
129,129.0,2052.0,708.7999999998137,4.001,3.437,4616.343999999575,5552.34,8936.34,11037.990000000224,979
130,130.0,2052.0,708.7999999998137,4.002,3.436,4610.358999999706,5552.36,8938.02,11011.35999999987,978
131,131.0,2052.0,708.7999999998137,4.002,3.437,4604.375,5552.38,8936.38,11028.64000000013,977
132,132.0,2052.77,707.2000000001863,4.001,3.437,4598.375,5552.38,8936.38,11014.899999999907,976
133,133.0,2059.22,703.186999999918,4.016,3.77,4556.968999999575,5523.0,8974.0,53946.77000000002,975
134,134.0,2052.0,705.0,4.0,3.763,4565.9440000006,5516.34,9008.34,11393.649999999907,974
135,135.0,2052.0,707.2000000001863,4.001,3.438,4604.375,5552.38,8936.38,11025.630000000354,973
136,136.0,2052.0,703.2000000001863,4.001,3.437,4601.975000000093,5552.38,8936.38,11033.279999999795,972
137,137.0,2040.0,703.2000000001863,4.001,3.438,4587.543999999762,5516.34,8936.34,11020.629999999888,971
138,138.0,2040.0,701.6000000000931,4.001,3.439,4580.281999999657,5516.28,8900.28,10987.209999999963,970
139,139.0,2040.0,699.6000000000931,4.001,3.439,4573.14400000032,5516.34,8936.34,11010.380000000354,969
140,140.0,2040.0,697.6000000000931,4.001,3.44,4565.975000000093,5516.38,8936.38,11001.649999999907,968
141,141.0,2040.0,700.0,4.001,3.44,4558.7440000004135,5480.34,8900.34,10964.629999999888,967
142,142.0,2040.0,696.0,4.001,3.44,4556.281000000425,5480.28,8936.28,11007.220000000205,966
143,143.0,2028.0,696.0,4.001,3.44,4550.343999999575,5480.34,8936.34,11004.779999999795,965
144,144.0,2028.0,694.3999999999069,4.0,3.441,4544.405999999493,5480.41,8900.41,10959.160000000149,964
145,145.0,2028.0,692.7999999998137,4.0,3.441,4532.343999999575,5480.34,8900.34,10967.649999999907,963
146,146.0,2028.0,692.7999999998137,4.0,3.442,4526.375,5444.38,8900.38,10970.350000000093,962
147,147.0,2028.0,691.2000000001863,4.0,3.443,4520.311999999918,5444.31,8864.31,10943.589999999851,961
148,148.0,2028.0,693.0,4.0,3.442,4514.344000000507,5444.34,8903.78,10946.810000000056,960
149,149.0,2016.0,689.6000000000931,3.999,3.444,4508.311999999918,5444.31,8864.31,10926.410000000149,959
150,150.0,2016.0,687.6000000000931,4.0,3.443,4502.313000000082,5444.31,8864.31,10927.839999999851,958
151,151.0,2016.0,684.0,3.999,3.444,4496.25,5444.25,8864.25,10907.21999999974,957
152,152.0,2016.0,684.0,3.999,3.445,4486.743999999482,5408.34,8864.34,10931.44000000041,956
153,153.0,2016.0,682.3999999999069,3.999,3.445,4479.575000000186,5408.38,8864.41,10922.369999999646,955
154,154.0,2016.0,682.3999999999069,3.999,3.446,4472.313000000082,5408.31,8864.31,10914.0,954
155,155.0,2004.0,680.3999999999069,3.999,3.446,4466.375,5408.38,8864.81,10893.939999999944,953
156,156.0,2004.0,675.2000000001863,3.998,3.447,4465.112999999896,5408.31,8864.31,10899.630000000354,952
157,157.0,2018.38,676.813000000082,4.013,3.777,4417.0,5376.0,8918.0,53851.0,951
158,158.0,2028.0,688.0,3.995,3.778,4386.047999999952,5336.45,8936.45,11002.399999999907,950
159,159.0,2028.0,685.6000000000931,3.995,3.444,4544.351000000257,5480.35,8936.35,11011.229999999981,949
160,160.0,2028.0,681.6000000000931,3.996,3.446,4529.822999999858,5444.22,8936.22,11002.96999999974,948
161,161.0,2016.0,684.0,3.995,3.447,4514.319999999832,5444.32,8900.32,10952.360000000335,947
162,162.0,2016.0,680.0,3.995,3.448,4502.350999999326,5444.35,8900.35,10947.319999999832,946
163,163.0,2016.0,678.0,3.995,3.448,4493.9509999998845,5408.35,8864.35,10921.85999999987,945
164,164.0,2016.0,678.0,3.995,3.449,4484.351999999955,5408.35,8864.35,10929.920000000391,944
165,165.0,2004.0,674.3999999999069,3.995,3.449,4472.320000000298,5408.32,8864.32,10917.509999999776,943
166,166.0,2004.0,674.3999999999069,3.995,3.451,4468.695000000298,5410.7,8866.7,10910.580000000075,942
167,167.0,2004.0,676.7999999998137,3.995,3.45,4457.82600000035,5372.23,8900.23,10928.259999999776,941
168,168.0,2004.0,672.7999999998137,3.995,3.452,4450.719999999739,5372.32,8828.32,10883.360000000335,940
169,169.0,2004.01,671.2000000001863,3.995,3.451,4442.289000000339,5372.29,8792.29,10842.589999999851,939
170,170.0,2003.52,668.7999999998137,3.995,3.452,4436.39000000013,5372.39,8828.39,10869.790000000037,938
171,171.0,1992.0,671.2000000001863,3.994,3.452,4430.343000000343,5372.34,8841.78,10858.049999999814,937
172,172.0,1992.0,671.2000000001863,3.995,3.452,4424.344000000041,5372.34,8828.34,10856.700000000186,936
173,173.0,1992.0,667.2000000001863,3.995,3.453,4418.343999999575,5336.34,8828.34,10847.689999999944,935
174,174.0,1980.0,661.6000000000931,3.994,3.453,4407.528000000399,5336.33,8792.33,10815.580000000075,934
175,175.0,1992.0,666.0,3.994,3.456,4388.313000000082,5336.31,8826.39,10833.759999999776,933
176,176.0,1980.0,666.0,3.994,3.454,4393.128000000026,5336.33,8792.33,10831.910000000149,932
177,177.0,1979.97,664.0,3.994,3.455,4388.358999999706,5300.36,8828.36,10835.580000000075,931
178,178.0,1980.0,664.0,3.995,3.455,4382.219000000041,5300.22,8756.22,10793.589999999851,930
179,179.0,1980.0,666.0,3.995,3.454,4378.712000000291,5300.31,8792.31,10812.580000000075,929
180,180.0,1980.0,664.0,3.995,3.454,4376.219000000507,5300.22,8792.22,10805.089999999851,928
181,181.0,1989.59,660.0,4.008,3.701,4340.375,5292.0,8869.41,53767.41000000015,927
182,182.0,1980.0,660.7999999998137,3.993,3.775,4334.343999999575,5264.34,8828.34,11171.0,926
183,183.0,1980.0,664.0,3.994,3.457,4378.712999999989,5300.31,8864.31,10873.339999999851,925
184,184.0,1980.0,664.0,3.994,3.456,4382.343999999575,5300.34,8828.34,10850.380000000354,924
185,185.0,1980.0,662.3999999999069,3.994,3.455,4371.6069999998435,5300.41,8828.41,10836.869999999646,923
186,186.0,1980.0,658.7999999998137,3.993,3.456,4364.343999999575,5300.34,8792.31,10809.600000000093,922
187,187.0,1980.0,660.7999999998137,3.993,3.458,4349.912000000011,5264.31,8828.31,10830.399999999907,921
188,188.0,1979.81,660.7999999998137,3.993,3.457,4349.913000000175,5264.31,8792.31,10809.850000000093,920
189,189.0,1968.0,659.2000000001863,3.992,3.457,4346.343999999575,5264.34,8792.34,10788.430000000168,919
190,190.0,1968.0,655.2000000001863,3.993,3.458,4340.313000000082,5264.31,8792.31,10793.790000000037,918
191,191.0,1968.0,657.6000000000931,3.993,3.46,4334.343999999575,5264.34,8792.34,10780.310000000056,917
192,192.0,1972.03,653.6000000000931,3.993,3.458,4328.313000000082,5264.31,8792.31,10804.80999999959,916
193,193.0,1968.0,652.0,3.993,3.46,4321.1430000001565,5228.34,8756.34,10763.590000000317,915
194,194.0,1956.0,652.0,3.993,3.46,4310.343999999575,5228.34,8820.22,10802.189999999944,914
195,195.0,1956.0,648.0,3.992,3.46,4304.343000000343,5228.34,8756.34,10772.029999999795,913
196,196.0,1956.0,646.3999999999069,3.992,3.46,4298.343999999575,5228.34,8756.34,10740.630000000354,912
197,197.0,1956.0,646.3999999999069,3.992,3.461,4292.311999999918,5228.31,8720.31,10730.369999999646,911
198,198.0,1956.0,646.3999999999069,3.993,3.462,4286.375,5228.38,8756.38,10754.540000000037,910
199,199.0,1956.0,646.3999999999069,3.992,3.463,4285.174999999814,5192.38,8792.38,10775.180000000168,909
200,200.0,1956.0,642.3999999999069,3.992,3.462,4280.25,5192.25,8756.25,10730.029999999795,908
201,201.0,1943.97,640.7999999998137,3.991,3.462,4274.343000000343,5192.34,8720.34,10709.03000000026,907
202,202.0,1944.0,640.7999999998137,3.992,3.463,4268.375,5192.38,8792.38,10762.850000000093,906
203,203.0,1944.0,643.2000000001863,3.991,3.462,4263.512000000104,5192.31,8756.31,10726.119999999646,905
